3.1581
3.15235
3.14285
3.1271
3.10309
3.07809
3.05859
3.04184
3.03134
3.03434
3.04434
3.06184
3.08909
3.12135
3.1431
3.15285
3.1566
3.1501
3.1371
3.12485
3.11335
3.10259
3.09559
3.09534
3.09834
3.10634
3.1171
3.1256
3.13235
3.13835
3.14435
3.14935
3.1506
3.1436
3.13735
3.12735
3.11435
3.09609
3.07584
3.06609
3.07084
3.08759
3.1216
3.1216
3.1371
3.1566
3.17435
3.1836
3.1831
3.17685
3.1646
3.1496
3.1306
3.10709
3.08359
3.06584
3.05859
3.06034
3.07059
3.08484
3.09859
3.1106
3.12635
3.1441
3.15535
3.15485
3.14035
3.1216
3.1121
3.10709
3.10134
3.09884
3.10059
3.10759
3.12385
3.14735
3.17335
3.19635
3.21685
3.23285
3.2421
3.23935
3.2221
3.19335
3.16285
3.14185
3.1276
3.11485
3.10659
3.10784
3.1211
3.14385
3.1731
3.2016
3.2226
3.23835
3.2526
3.2581
3.2531
3.2441
3.23135
3.2136
3.19685
3.17785
3.1571
3.1376
3.1256
3.1216
3.1251
3.1346
3.15085
3.17135
3.1956
3.21835
3.2326
3.2376
3.23685
3.22785
3.2106
3.19035
3.1631
3.13235
3.10935
3.09934
3.10509
3.1241
3.14835
3.17385
3.19835
3.2206
3.24085
3.25185
3.2511
3.2441
3.23335
3.21785
3.19935
3.18035
3.1606
3.14985
3.1471
3.15185
3.1626
3.1821
3.1996
3.2121
3.2226
3.2401
3.26035
3.27235
3.27535
3.2731
3.2681
3.25735
3.2401
3.22135
3.2106
3.20835
3.2096
3.20835
3.2086
3.21735
3.23235
3.24885
3.2631
3.2731
3.27885
3.2796
3.2721
3.26135
3.2496
3.2361
3.22135
3.2116
3.20835
3.2096
3.2166
3.2216
3.22185
3.2246
3.2386
3.26085
3.2816
3.29485
3.2991
3.29285
3.2831
3.27185
3.2586
3.24435
3.23385
3.2301
3.23335
3.2441
3.25985
3.27435
3.3036
3.31185
3.3131
3.3051
3.28735
3.26335
3.23035
3.2186
3.2051
3.19235
3.1891
3.19235
3.1996
3.20685
3.2176
3.2381
3.2661
3.2881
3.30085
3.3061
3.3026
3.29135
3.2756
3.2556
3.2366
3.2196
3.20685
3.2026
3.2071
3.21885
3.2381
3.2591
3.2811
3.3011
3.31535
3.3211
3.31785
3.30885
3.29635
3.28435
3.2746
3.26285
3.2486
3.2366
3.22985
3.22535
3.22135
3.22385
3.23785
3.2626
3.28135
3.28485
3.2846
3.28785
3.2941
3.30235
3.3081
3.30885
3.30435
3.3021
3.3036
3.30885
3.32285
3.3446
3.3661
3.3881
3.4121
3.43836
3.46011
3.47711
3.49011
3.49411
3.49086
3.48586
3.48311
3.47386
3.46611
3.46861
3.47786
3.49236
3.51486
3.53811
3.56136
3.57786
3.58536
3.58536
3.58586
3.58586
3.58186
3.57511
3.56536
3.55261
3.53711
3.52736
3.53061
3.54461
3.56461
3.58486
3.60036
3.61386
3.63086
3.64836
3.65436
3.64586
3.62911
3.60411
3.57636
3.54811
3.51886
3.48911
3.46511
3.44886
3.44111
3.43911
3.44261
3.44436
3.44586
3.45236
3.46036
3.46261
3.46111
3.45136
3.4336
3.41585
3.39785
3.37635
3.3516
3.3411
3.32485
3.30185
3.26785
3.17035
3.15135
3.1451
3.1491
3.1596
3.1761
3.19985
3.2296
3.25885
3.2801
3.28835
3.27985
3.2556
3.22435
3.1941
3.16885
3.1536
3.15085
3.15985
3.1761
3.19635
3.21285
3.22835
3.24635
3.26835
3.2861
3.2956
3.29485
3.28685
3.2731
3.25385
3.2271
3.19685
3.1716
3.15785
3.15485
3.1616
3.17985
3.19985
3.2196
3.2401
3.25635
3.26685
3.27035
3.2676
3.25685
3.24285
3.22735
3.21035
3.1931
3.1816
3.17735
3.1796
3.18885
3.2001
3.2111
3.2251
3.2401
3.2556
3.2656
3.2661
3.25835
3.2421
3.2221
3.20285
3.18085
3.15035
3.11635
3.08609
3.06659
3.06234
3.07184
3.09484
3.1381
3.2016
3.2776
3.3531
3.42135
3.48736
3.55361
3.62386
3.69761
3.77187
3.84962
3.94012
4.05012
4.17738
4.31688
4.46889
4.62489
4.77815
4.9304
5.08166
5.22941
5.37516
5.52317
5.66567
5.78693
5.85693
5.84393
5.73993
5.55917
5.33166
5.07691
4.8184
4.57564
4.35963
4.17213
4.01562
3.88437
3.77412
3.67686
3.58336
3.48986
3.39685
3.29935
3.1956
3.09384
3.00359
2.92134
2.84159
2.76558
2.69233
2.62458
2.56308
2.51308
2.46958
2.43032
2.39807
2.37507
2.36557
2.37507
2.39907
2.43407
2.48708
2.55883
2.64333
2.73433
2.82734
2.91734
3.00259
3.08009
3.1506
3.2036
3.2366
3.2546
3.2586
3.25085
3.2401
3.2291
3.2141
3.1986
3.18635
3.1806
3.17835
3.17835
3.17935
3.1821
3.19035
3.2041
3.2146
3.21935
3.22035
3.21685
3.21035
3.2006
3.1911
3.17985
3.1736
3.1786
3.19185
3.2091
3.22935
3.24685
3.25985
3.27035
3.2816
3.2906
3.2936
3.29335
3.28835
3.28085
3.27435
3.26585
3.2561
3.25185
3.25435
3.2581
3.26385
3.27185
3.28135
3.29885
3.32085
3.3371
3.34085
3.3421
3.34435
3.3441
3.3421
3.3371
3.3236
3.30435
3.28885
3.2791
3.2761
3.2821
3.3006
3.32435
3.34635
3.36485
3.37885
3.3886
3.39435
3.3946
3.3846
3.36635
3.34335
3.3206
3.3001
3.2906
3.2946
3.3091
3.32935
3.34635
3.35885
3.3706
3.3876
3.4111
3.4346
3.45286
3.45986
3.45086
3.43585
3.41985
3.40785
3.39635
3.39135
3.3931
3.3936
3.3951
3.40835
3.4261
3.44511
3.46286
3.47961
3.49561
3.51386
3.53086
3.53586
3.53036
3.51636
3.49311
3.46636
3.44436
3.43085
3.4231
3.42285
3.43085
3.44286
3.46411
3.49336
3.52486
3.55286
3.57361
3.58486
3.58836
3.58736
3.58336
3.57836
3.57186
3.56961
3.56986
3.57511
3.58836
3.60786
3.63186
3.65761
3.68336
3.70461
3.72411
3.74286
3.75736
3.76437
3.76512
3.75886
3.74561
3.73361
3.72861
3.73386
3.75236
3.77487
3.78887
3.80187
3.82062
3.84137
3.85487
3.86412
3.87462
3.88262
3.88812
3.89412
3.89887
3.90287
3.90987
3.91962
3.93462
3.95962
3.99437
4.03037
4.06212
4.09438
4.12538
4.15088
4.16813
4.17388
4.16863
4.15588
4.14038
4.12238
4.10138
4.08387
4.07437
4.07562
4.08838
4.10838
4.12763
4.14788
4.17213
4.20213
4.23338
4.25688
4.26413
4.25388
4.23613
4.21163
4.18038
4.14463
4.11013
4.08612
4.07462
4.07212
4.07262
4.06712
4.05762
4.05112
4.04287
4.03112
4.01112
3.98412
3.95137
3.91362
3.87487
3.83362
3.79012
3.74736
3.71261
3.68636
3.66711
3.64861
3.63036
3.61311
3.59736
3.58136
3.55736
3.52936
3.50236
3.47436
3.44386
3.40685
3.35935
3.3081
3.2691
3.2451
3.2351
3.2411
3.2541
3.26585
3.27535
3.2846
3.28835
3.2806
3.26335
3.23885
3.2126
3.1886
3.16485
3.14035
3.11685
3.09909
3.08709
3.07834
3.07384
3.07059
3.06684
3.06809
3.07384
3.07384
3.06509
3.04734
3.02509
3.00334
2.98909
2.98034
2.97259
2.96359
2.95534
2.94759
2.94309
2.94634
2.95734
2.97359
2.99184
3.01159
3.02634
3.03184
3.03059
3.02059
3.00409
2.98734
2.96959
2.94909
2.92959
2.91734
2.91734
2.93109
2.95659
2.98384
3.00759
3.02459
3.03584
3.03834
3.03334
3.02309
3.00709
2.98909
2.97509
2.96059
2.94459
2.92684
2.91784
2.91709
2.92234
2.93259
2.94759
2.96834
2.99209
3.01559
3.03159
3.03559
3.02959
3.02084
3.01309
3.00409
2.99184
2.97459
2.95859
2.94984
2.95134
2.96334
2.98509
3.00734
3.02909
3.05209
3.07209
3.08384
3.08384
3.07609
3.06409
3.04809
3.03384
3.02234
3.00759
2.99359
2.98634
2.98859
2.99884
3.01809
3.04159
3.06809
3.09234
3.11135
3.1216
3.11835
3.10284
3.08309
3.06359
3.04784
3.02934
3.01234
3.00159
3.00434
3.02259
3.05034
3.07834
3.10009
3.11935
3.13985
3.15935
3.17335
3.17485
3.16535
3.14685
3.12135
3.08834
3.05459
3.02734
3.00759
2.99334
2.99334
3.01434
3.05159
3.09559
3.13885
3.17935
3.20485
3.21135
3.20135
3.1796
3.15335
3.12985
3.11135
3.09809
3.08184
3.06834
3.06059
3.05934
3.06734
3.07859
3.09334
3.1081
3.1231
3.1346
3.1426
3.1496
3.15485
3.1566
3.15085
3.1381
3.1191
3.10084
3.08759
3.07959
3.07734
3.08209
3.08934
3.09959
3.1121
3.1301
3.1436
3.14735
3.1426
3.13035
3.11235
3.09034
3.06609
3.04934
3.03959
3.04059
3.05809
3.08009
3.10084
3.11785
3.13285
3.1476
3.16235
3.1736
3.17885
3.1746
3.16085
3.13885
3.1131
3.08684
3.05709
3.02209
2.99484
2.98634
2.99834
3.02284
3.04959
3.07684
3.10459
3.1301
3.1451
3.14735
3.13835
3.12385
3.1121
3.09709
3.07184
3.03884
3.01209
3.00259
3.00809
3.02484
3.04809
3.07034
3.08784
3.10384
3.11735
3.12185
3.1166
3.10209
3.07984
3.05834
3.04034
3.01409
3.01084
3.01859
3.03309
3.05034
3.07034
3.09209
3.1166
3.14035
3.1616
3.1731
3.1746
3.1671
3.1476
3.1236
3.10109
3.08259
3.06609
3.05709
3.05359
3.05084
3.05509
3.07334
3.09709
3.1236
3.15185
3.1741
3.1886
3.1911
3.18235
3.1711
3.1641
3.15785
3.1496
3.1406
3.1351
3.13185
3.1301
3.1346
3.14635
3.1621
3.17685
3.1896
3.19685
3.19735
3.1881
3.1711
3.1491
3.12635
3.10184
3.08009
3.06409
3.05909
3.06359
3.07859
3.10234
3.12385
3.13835
3.1561
3.17735
3.1946
3.20185
3.20085
3.19435
3.1821
3.1731
3.1656
3.15085
3.1301
3.11335
3.09984
3.09259
3.10159
3.1186
3.1306
3.14585
3.1721
3.2006
3.21885
3.22435
3.2211
3.21335
3.20485
3.19485
3.1811
3.16935
3.16535
3.1701
3.18185
3.1926
3.19985
3.2051
3.2111
3.21935
3.2251
3.23035
3.23035
3.2226
3.2086
3.1906
3.16985
3.14935
3.13235
3.12285
3.1196
3.1206
3.12735
3.1356
3.14685
3.1651
3.19035
3.21135
3.2221
3.2216
3.21135
3.1991
3.1911
3.1741
3.1496
3.1336
3.13035
3.14085
3.15935
3.18435
3.2096
3.2316
3.2496
3.2636
3.27135
3.27235
3.26535
3.2501
3.22885
3.1991
3.1591
3.1126
3.08459
3.08034
3.09434
3.11535
3.1456
3.1751
3.20385
3.23585
3.26835
3.28985
3.29535
3.28935
3.2701
3.2441
3.2201
3.19685
3.17385
3.1581
3.1526
3.15335
3.15685
3.16685
3.1811
3.20185
3.2296
3.25835
3.27435
3.27835
3.26935
3.24735
3.2251
3.20585
3.1881
3.1676
3.14785
3.1356
3.13685
3.1531
3.1791
3.2036
3.2266
3.2506
3.2761
3.29485
3.3041
3.3011
3.28685
3.2686
3.2491
3.2306
3.21485
3.2076
3.2096
3.2186
3.23135
3.2466
3.25935
3.2676
3.27635
3.2841
3.2861
3.28035
3.2656
3.2506
3.24285
3.2401
3.2376
3.23085
3.2281
3.23235
3.24135
3.25785
3.2726
3.28235
3.2936
3.3121
3.3281
3.33285
3.32635
3.3116
3.2911
3.27035
3.2501
3.22535
3.2016
3.1901
3.19185
3.2046
3.2221
3.2401
3.2586
3.27985
3.30185
3.31435
3.31585
3.31235
3.30585
3.2921
3.27785
3.2601
3.23935
3.22085
3.2086
3.2071
3.21685
3.23335
3.2456
3.2571
3.2781
3.30835
3.33585
3.35485
3.3601
3.34635
3.3281
3.31385
3.3046
3.29485
3.2891
3.2941
3.30885
3.32985
3.35485
3.3846
3.4166
3.44686
3.47161
3.48486
3.48561
3.47461
3.46086
3.45536
3.45936
3.46161
3.45686
3.44911
3.44811
3.45811
3.47236
3.48536
3.49611
3.50661
3.51836
3.53511
3.55186
3.56211
3.56586
3.56936
3.57311
3.57461
3.57586
3.58486
3.60161
3.62186
3.63836
3.64811
3.64661
3.63761
3.62861
3.62186
3.61486
3.60336
3.58636
3.56211
3.52761
3.49086
3.45461
3.4151
3.3721
3.33835
3.3221
3.3201
3.33035
3.34785
3.3716
3.3981
3.42585
3.44536
3.45011
3.44761
3.44036
3.42961
3.4191
3.40735
3.3876
3.3621
3.34485
3.3396
3.34035
3.34035
3.33535
3.3261
3.31485
3.30485
3.29535
3.28735
3.28085
3.2701
3.25485
3.2396
3.2286
3.21685
3.2031
3.1991
3.20335
3.21285
3.22735
3.2451
3.2626
3.28285
3.3081
3.33185
3.34685
3.3531
3.34335
3.32785
3.31035
3.28585
3.2571
3.2376
3.2361
3.2446
3.25835
3.26985
3.2801
3.29435
3.31485
3.32785
3.3316
3.3286
3.3161
3.29585
3.27385
3.25385
3.23635
3.22285
3.21935
3.2246
3.2356
3.25085
3.2661
3.2801
3.29085
3.3056
3.32185
3.34035
3.3551
3.3616
3.35535
3.3466
3.33635
3.3206
3.30085
3.2786
3.25835
3.2431
3.23835
3.2436
3.25785
3.27335
3.2851
3.28535
3.2741
3.25435
3.2271
3.1966
3.16985
3.15235
3.1441
3.15135
3.17735
3.2211
3.28085
3.3491
3.4231
3.50611
3.60136
3.70886
3.82287
3.93612
4.05062
4.17238
4.30013
4.42514
4.54339
4.66739
4.80365
4.9444
5.08491
5.22566
5.36866
5.51517
5.66767
5.81793
5.93218
5.97218
5.91893
5.77743
5.56492
5.30566
5.02765
4.75715
4.50814
4.29188
4.11113
3.96587
3.85112
3.75586
3.67536
3.61386
3.57186
3.54061
3.50836
3.46586
3.4116
3.34085
3.25685
3.15985
3.05234
2.94234
2.84009
2.75083
2.67858
2.62908
2.59683
2.57658
2.57258
2.58733
2.61683
2.65533
2.69808
2.74383
2.79209
2.84509
2.89959
2.95284
3.00784
3.06284
3.11885
3.1756
3.2331
3.28285
3.3221
3.3541
3.38285
3.39935
3.40185
3.3941
3.38335
3.3766
3.3736
3.3641
3.3421
3.31535
3.29085
3.2756
3.2696
3.2736
3.2876
3.30285
3.3176
3.33635
3.35385
3.36635
3.3726
3.36835
3.35785
3.3451
3.32785
3.30885
3.2941
3.2871
3.2866
3.2911
3.3011
3.3151
3.33635
3.3676
3.4006
3.42735
3.44286
3.44761
3.44236
3.4336
3.42285
3.40535
3.38035
3.33535
3.32585
3.3296
3.3471
3.36835
3.38785
3.40935
3.43611
3.46386
3.48586
3.49786
3.49736
3.48686
3.46761
3.44286
3.41435
3.39035
3.37585
3.3686
3.3646
3.36285
3.3626
3.3746
3.4046
3.43911
3.46636
3.48361
3.49136
3.49086
3.49061
3.49086
3.48636
3.47286
3.45611
3.43686
3.42135
3.41685
3.4176
3.42135
3.4291
3.44436
3.46386
3.48486
3.50611
3.52111
3.52636
3.52661
3.52361
3.51311
3.49786
3.48461
3.48286
3.48936
3.50411
3.52111
3.53661
3.55061
3.56436
3.57511
3.58161
3.57786
3.56486
3.54461
3.52936
3.51786
3.50836
3.50136
3.50811
3.52336
3.54086
3.55986
3.58011
3.60236
3.63086
3.66436
3.69236
3.70836
3.71336
3.71261
3.71336
3.71661
3.71536
3.70611
3.69136
3.67786
3.66961
3.66986
3.67886
3.71336
3.73886
3.76887
3.80187
3.83212
3.85512
3.87112
3.87987
3.88137
3.88187
3.88162
3.87862
3.87837
3.88687
3.90362
3.92562
3.94937
3.97187
3.99412
4.01612
4.03662
4.05162
4.05912
4.05837
4.05162
4.04512
4.03862
4.03162
4.02312
4.02212
4.03187
4.05262
4.07637
4.10313
4.13438
4.16813
4.19938
4.22088
4.23213
4.23238
4.21813
4.19788
4.17738
4.15413
4.12538
4.10363
4.09688
4.10188
4.11488
4.13188
4.14913
4.16988
4.19063
4.20488
4.20963
4.20338
4.18688
4.16613
4.14588
4.11938
4.08563
4.04962
4.01487
3.98087
3.94662
3.91862
3.90112
3.89112
3.88112
3.87012
3.85662
3.83662
3.80937
3.77587
3.73536
3.69361
3.65686
3.62286
3.58561
3.55036
3.51961
3.49561
3.48011
3.47486
3.47511
3.47536
3.47111
3.47111
3.46261
3.44836
3.42485
3.39035
3.3541
3.31785
3.27985
3.24085
3.20785
3.1836
3.1666
3.1541
3.14435
3.13635
3.1351
3.1436
3.1541
3.1601
3.15685
3.14485
3.12335
3.09434
3.06709
3.04584
3.03059
3.02134
3.01384
3.00434
3.00109
3.00334
3.00909
3.01609
3.02484
3.03334
3.04409
3.05084
3.05009
3.03634
3.01559
2.99584
2.97859
2.96334
2.95309
2.95034
2.95184
2.95959
2.97234
2.98659
3.00484
3.02409
3.03709
3.03959
3.03434
3.02184
3.00859
3.00209
2.99609
2.98484
2.97134
2.96084
2.95459
2.95184
2.95734
2.96584
2.97334
2.98609
3.00984
3.03634
3.05159
3.04884
3.03409
3.01684
2.99959
2.98084
2.96059
2.94534
2.94159
2.94559
2.95484
2.96459
2.97759
2.99409
3.01734
3.03909
3.05709
3.06259
3.06234
3.05559
3.04609
3.03359
3.01759
3.00334
2.99509
2.98959
2.99284
3.00434
3.02084
3.03959
3.05959
3.07959
3.09309
3.09934
3.09934
3.09259
3.08284
3.06984
3.05109
3.03159
3.01859
3.01509
3.01909
3.02984
3.04484
3.06034
3.07384
3.08859
3.10509
3.1221
3.13835
3.14685
3.14235
3.12835
3.1151
3.10234
3.08834
3.07534
3.06609
3.06359
3.06859
3.07809
3.08609
3.09259
3.10734
3.1281
3.14335
3.15035
3.15435
3.15735
3.1606
3.1551
3.1426
3.12535
3.1151
3.11385
3.11785
3.12535
3.13835
3.1526
3.1676
3.18285
3.19635
3.2041
3.20685
3.2026
3.18585
3.16135
3.1356
3.1146
3.09209
3.07059
3.05609
3.05509
3.06484
3.07984
3.09284
3.10559
3.1206
3.1391
3.1536
3.16185
3.1576
3.14235
3.12385
3.10534
3.08709
3.07284
3.06634
3.06559
3.07234
3.08659
3.10609
3.12685
3.1481
3.1671
3.18085
3.18835
3.1886
3.1831
3.17285
3.1586
3.1361
3.1106
3.08634
3.07234
3.06709
3.06759
3.07784
3.09459
3.1151
3.1376
3.15735
3.16985
3.1781
3.1811
3.1756
3.1636
3.1496
3.1341
3.1171
3.09959
3.08834
3.08409
3.08859
3.10009
3.10659
3.10935
3.11435
3.12735
3.1391
3.1471
3.1541
3.15285
3.14635
3.1361
3.12085
3.10034
3.08234
3.07059
3.06909
3.07709
3.09209
3.10784
3.1261
3.14535
3.16735
3.18685
3.20135
3.20785
3.20635
3.1966
3.18035
3.16035
3.13885
3.1196
3.10484
3.09509
3.09609
3.10734
3.1231
3.1391
3.1576
3.17385
3.1796
3.1756
3.16785
3.1531
3.13735
3.12435
3.08959
3.07509
3.06709
3.06459
3.06959
3.08309
3.10209
3.12535
3.14635
3.16385
3.1786
3.1926
3.20585
3.2116
3.20935
3.19985
3.18235
3.15885
3.13685
3.12085
3.1146
3.12335
3.14235
3.1636
3.1836
3.20235
3.2151
3.22085
3.22285
3.2196
3.2076
3.19585
3.1856
3.1746
3.1606
3.14985
3.14435
3.14635
3.1566
3.16935
3.1791
3.1876
3.1951
3.1986
3.1941
3.18135
3.1641
3.14735
3.13385
3.1266
3.12385
3.1221
3.1236
3.1286
3.13535
3.14335
3.14785
3.1531
3.1621
3.1736
3.1866
3.19685
3.2026
3.1986
3.1851
3.17535
3.1671
3.15735
3.1431
3.12885
3.11935
3.1161
3.1246
3.1381
3.1526
3.1711
3.1936
3.21385
3.22985
3.2456
3.2571
3.2591
3.25135
3.23235
3.2056
3.1796
3.1621
3.1566
3.15885
3.16885
3.18135
3.1921
3.20585
3.22685
3.2496
3.2686
3.2821
3.28585
3.27735
3.2611
3.2381
3.21135
3.1866
3.1691
3.15885
3.15685
3.1636
3.17835
3.19985
3.22435
3.24685
3.26285
3.2716
3.2731
3.2656
3.2531
3.24485
3.2366
3.2256
3.21435
3.20685
3.1996
3.1941
3.1931
3.1911
3.1931
3.2041
3.2236
3.23585
3.23885
3.2356
3.2271
3.21935
3.2136
3.2086
3.2016
3.19935
3.2051
3.2131
3.2256
3.2391
3.2496
3.2606
3.2736
3.29135
3.30485
3.31185
3.31185
3.3046
3.2996
3.2886
3.2716
3.25385
3.23885
3.23035
3.22485
3.22335
3.2251
3.23085
3.2396
3.24935
3.2611
3.27235
3.28235
3.28735
3.28735
3.28735
3.2841
3.27635
3.26385
3.2496
3.2396
3.2356
3.23885
3.25385
3.25385
3.26135
3.2746
3.2936
3.3111
3.31985
3.31935
3.3096
3.2966
3.28585
3.2761
3.26535
3.2616
3.26585
3.2741
3.28785
3.3011
3.31135
3.3196
3.32835
3.3346
3.3341
3.3271
3.3136
3.2971
3.2851
3.2766
3.2671
3.2546
3.24485
3.23935
3.2411
3.2501
3.26435
3.27685
3.2831
3.28935
3.30185
3.3161
3.3236
3.32085
3.3091
3.29185
3.26785
3.24035
3.2196
3.21335
3.2156
3.22435
3.24285
3.2681
3.2986
3.33235
3.36985
3.4046
3.42335
3.42785
3.4256
3.42085
3.41335
3.39935
3.38335
3.36935
3.3661
3.3726
3.38985
3.41785
3.44861
3.47936
3.51086
3.53961
3.56136
3.57311
3.56936
3.54986
3.52461
3.49986
3.47386
3.44536
3.4201
3.40935
3.4151
3.43135
3.45586
3.48236
3.50736
3.56861
3.60186
3.62661
3.64311
3.65161
3.65886
3.66411
3.66311
3.64786
3.62711
3.60611
3.58786
3.57361
3.56361
3.55286
3.54261
3.53686
3.53286
3.52811
3.52061
3.50661
3.48711
3.47336
3.46111
3.44461
3.4256
3.40385
3.3826
3.3686
3.36835
3.3846
3.40135
3.4166
3.43185
3.44761
3.45286
3.45111
3.44161
3.4251
3.40785
3.38835
3.36435
3.3366
3.31235
3.29735
3.2931
3.2936
3.2916
3.2916
3.3031
3.3221
3.34185
3.35385
3.35685
3.35185
3.34085
3.3261
3.3056
3.2821
3.25685
3.2361
3.2241
3.21835
3.2191
3.2216
3.2281
3.24285
3.26085
3.27435
3.2811
3.2871
3.2916
3.2946
3.2941
3.2856
3.2696
3.2461
3.21885
3.1961
3.1801
3.1751
3.18085
3.1956
3.2201
3.25285
3.2846
3.3151
3.33785
3.34635
3.3436
3.33535
3.3181
3.2936
3.2746
3.26735
3.2666
3.27185
3.2826
3.2921
3.2986
3.30685
3.3146
3.31835
3.32035
3.3236
3.32835
3.3331
3.3366
3.3336
3.32235
3.3036
3.2861
3.27285
3.2646
3.2651
3.2706
3.27735
3.2816
3.2811
3.27285
3.2591
3.24435
3.23235
3.22585
3.2256
3.2276
3.23485
3.2526
3.2851
3.33685
3.4101
3.49486
3.58261
3.67111
3.77412
3.89237
4.01312
4.13463
4.26213
4.38788
4.51489
4.64439
4.7694
4.88615
5.00115
5.12141
5.25441
5.40542
5.56517
5.72592
5.86693
5.94743
5.94093
5.84068
5.66367
5.43167
5.16791
4.90015
4.64739
4.41413
4.20338
4.01887
3.86337
3.73436
3.62511
3.53136
3.44636
3.37085
3.3041
3.23385
3.1546
3.08059
3.00159
2.91609
2.74358
2.66058
2.58533
2.52783
2.48983
2.46908
2.46983
2.48908
2.52433
2.57408
2.63458
2.70133
2.76633
2.83384
2.90534
2.97609
3.04384
3.10034
3.14435
3.17535
3.1956
3.20785
3.2186
3.23485
3.25685
3.28285
3.30985
3.34185
3.37335
3.3951
3.4056
3.4031
3.3856
3.35935
3.33335
3.31085
3.2896
3.2746
3.2671
3.26585
3.2746
3.2896
3.30685
3.32885
3.3606
3.39235
3.4141
3.42635
3.42735
3.4176
3.40535
3.3901
3.3696
3.3451
3.3246
3.3106
3.30785
3.3131
3.3281
3.34685
3.37135
3.4001
3.4216
3.4336
3.4356
3.42985
3.4186
3.40435
3.39085
3.37385
3.3581
3.3466
3.3396
3.33735
3.3411
3.3501
3.36535
3.38735
3.41285
3.43185
3.44286
3.44661
3.44411
3.43786
3.4306
3.4156
3.33935
3.33685
3.34835
3.36685
3.3836
3.40385
3.4266
3.44286
3.44986
3.45586
3.46186
3.46661
3.46961
3.46736
3.45711
3.44311
3.4311
3.4271
3.42961
3.43736
3.44336
3.44936
3.45486
3.46086
3.46886
3.47961
3.48161
3.47761
3.47486
3.46986
3.46186
3.45861
3.46436
3.47536
3.48686
3.50311
3.52036
3.53511
3.55061
3.57036
3.59361
3.61436
3.63036
3.63836
3.63986
3.63511
3.62686
3.61361
3.59836
3.57886
3.55561
3.53661
3.53186
3.54411
3.56561
3.59136
3.62286
3.65336
3.67661
3.69361
3.70411
3.71136
3.72136
3.72886
3.73011
3.72811
3.73111
3.73786
3.74836
3.76212
3.77987
3.79862
3.81612
3.83737
3.85987
3.87637
3.88687
3.89312
3.88962
3.88137
3.87212
3.86237
3.85237
3.84862
3.85612
3.92837
3.95887
3.99062
4.02262
4.05012
4.07437
4.09338
4.10337
4.10113
4.09338
4.08112
4.06837
4.06012
4.06337
4.07862
4.10488
4.13938
4.17888
4.21938
4.25588
4.28613
4.30663
4.31688
4.31813
4.31188
4.29988
4.28588
4.27213
4.25513
4.23538
4.21788
4.20738
4.20438
4.21113
4.22038
4.22438
4.22763
4.23463
4.23688
4.23113
4.21463
4.18363
4.14238
4.10313
4.06862
4.03312
3.99512
3.96087
3.93637
3.92037
3.91062
3.90437
3.90087
3.89887
3.89337
3.87637
3.85462
3.82787
3.79012
3.74686
3.70611
3.66561
3.62311
3.57861
3.53586
3.49711
3.46911
3.45011
3.43836
3.4311
3.42785
3.4236
3.4106
3.3896
3.3661
3.33735
3.3056
3.2736
3.2401
3.2026
3.1676
3.1406
3.12385
3.11485
3.1101
3.11035
3.1166
3.12935
3.1421
3.1481
3.1436
3.1301
3.10684
3.08359
3.06184
3.03559
3.00409
2.97559
2.95234
2.94034
2.94484
2.96034
2.97984
3.00134
3.02309
3.04059
3.04659
3.04034
3.02584
3.00659
2.99084
2.97434
2.95034
2.91884
2.89134
2.87609
2.87359
2.88384
2.90009
2.91809
2.93959
2.96159
2.97659
2.98159
2.98809
2.99559
2.99859
2.99659
2.98809
2.97334
2.95409
2.93309
2.91409
2.90834
2.91684
2.93184
2.94959
2.96984
2.99359
3.01884
3.03659
3.04684
3.04984
3.04184
3.03034
3.01609
2.99884
2.98184
2.96834
2.96234
2.96584
2.97684
2.99059
3.00534
3.01934
3.03334
3.04484
3.05034
3.04584
3.03734
3.02484
3.01259
2.99684
2.97759
2.96509
2.95984
2.96134
2.96634
2.97434
2.98459
3.00084
3.02159
3.04584
3.06434
3.07559
3.07934
3.07859
3.07409
3.06809
3.05934
3.04334
3.02184
3.00159
2.98834
2.98884
3.00409
3.02884
3.05909
3.09034
3.1171
3.1326
3.13935
3.13835
3.1256
3.10734
3.09084
3.07484
3.05909
3.04659
3.03934
3.04009
3.04784
3.05859
3.06659
3.07209
3.08684
3.11285
3.13985
3.1611
3.16885
3.1676
3.1636
3.1581
3.1446
3.1246
3.10709
3.09634
3.09034
3.08759
3.08934
3.09809
3.1131
3.13335
3.1561
3.17735
3.19185
3.1961
3.19335
3.1916
3.1911
3.1831
3.16585
3.14635
3.13085
3.1216
3.11635
3.11585
3.11785
3.1181
3.1246
3.1341
3.14185
3.1461
3.1426
3.13085
3.1191
3.1081
3.09534
3.07959
3.06984
3.06734
3.06909
3.07459
3.08584
3.09909
3.1141
3.1321
3.14785
3.15685
3.15835
3.1511
3.13935
3.12885
3.1166
3.09984
3.08034
3.06834
3.06734
3.07184
3.07709
3.08284
3.09034
3.10284
3.1231
3.14485
3.1591
3.1631
3.15835
3.14685
3.1296
3.1106
3.09009
3.07084
3.05959
3.05609
3.05984
3.07284
3.09034
3.11035
3.1341
3.1546
3.1651
3.1706
3.17085
3.1646
3.14885
3.12835
3.10409
3.07959
3.06234
3.05609
3.05809
3.06384
3.07659
3.08659
3.09759
3.1136
3.1351
3.1581
3.1786
3.18985
3.1871
3.17835
3.1696
3.1566
3.14085
3.1241
3.11135
3.10885
3.1166
3.1316
3.14835
3.16335
3.17585
3.18735
3.20085
3.20735
3.1981
3.17385
3.14885
3.12685
3.10159
3.06959
3.03659
3.01459
3.00609
3.00834
3.01909
3.03534
3.05909
3.09284
3.1316
3.16285
3.17835
3.1911
3.2016
3.20635
3.2111
3.21535
3.2146
3.21085
3.2101
3.2086
3.20285
3.2001
3.20185
3.2071
3.2126
3.21285
3.20735
3.19635
3.1811
3.1631
3.1471
3.1341
3.12785
3.12385
3.1186
3.11735
3.12535
3.1416
3.1626
3.18385
3.2041
3.22185
3.23735
3.24585
3.2451
3.23685
3.2246
3.20935
3.19335
3.17585
3.1546
3.13435
3.1176
3.10484
3.09759
3.10034
3.11185
3.1266
3.1416
3.15785
3.17435
3.19285
3.20785
3.21385
3.2141
3.20835
3.19035
3.16735
3.1501
3.14135
3.13985
3.1431
3.1486
3.15735
3.17185
3.1921
3.2146
3.2336
3.24785
3.2551
3.2501
3.23685
3.2191
3.2006
3.18235
3.1691
3.1626
3.16285
3.17235
3.1856
3.1996
3.21685
3.23685
3.25435
3.26485
3.2631
3.25185
3.23535
3.21785
3.19835
3.17585
3.1556
3.1411
3.1321
3.1311
3.1376
3.14835
3.16085
3.17735
3.20185
3.22585
3.24285
3.25185
3.2516
3.2471
3.2401
3.22785
3.20735
3.18135
3.1586
3.1441
3.1371
3.13885
3.1461
3.16435
3.19635
3.2341
3.2606
3.2676
3.25685
3.2386
3.22285
3.2091
3.1961
3.18235
3.16785
3.15935
3.1611
3.17135
3.1911
3.21535
3.23985
3.2611
3.2806
3.29335
3.29535
3.2916
3.2786
3.2651
3.25735
3.2491
3.2331
3.2181
3.20835
3.20185
3.1921
3.1871
3.1896
3.19685
3.2081
3.22335
3.2361
3.2436
3.24535
3.23585
3.2206
3.2086
3.1996
3.18735
3.1791
3.1836
3.19835
3.21935
3.24235
3.26135
3.27535
3.2866
3.2986
3.3091
3.3101
3.30285
3.28685
3.26835
3.24985
3.2306
3.2086
3.1926
3.1816
3.1746
3.17535
3.18335
3.19485
3.21085
3.23135
3.2521
3.27035
3.2816
3.28485
3.2806
3.27185
3.25585
3.2336
3.2096
3.1926
3.1891
3.1931
3.20435
3.2201
3.2351
3.2521
3.27485
3.29285
3.30085
3.2991
3.2926
3.2846
3.27685
3.26735
3.25335
3.2341
3.21885
3.2151
3.22135
3.23185
3.2406
3.24835
3.25785
3.27035
3.2791
3.2821
3.27735
3.2701
3.2656
3.2651
3.26335
3.25735
3.24835
3.2431
3.2426
3.2491
3.2631
3.2736
3.28085
3.2916
3.3066
3.3151
3.31635
3.31135
3.3071
3.3046
3.3011
3.29885
3.29735
3.29935
3.3096
3.33085
3.3571
3.38885
3.41985
3.44161
3.45811
3.47586
3.48886
3.49236
3.48961
3.47836
3.45986
3.44036
3.4236
3.4091
3.4021
3.4091
3.42085
3.43761
3.46161
3.48961
3.51986
3.55286
3.58661
3.61336
3.63111
3.64236
3.63811
3.62411
3.60661
3.58561
3.55986
3.53711
3.52036
3.51086
3.51186
3.51486
3.51711
3.52036
3.52586
3.52761
3.52636
3.51711
3.50036
3.47136
3.43686
3.40835
3.38735
3.36385
3.34185
3.32935
3.3296
3.3401
3.3536
3.36685
3.37885
3.38935
3.39585
3.39335
3.38285
3.3681
3.3491
3.3246
3.2976
3.2736
3.2506
3.23685
3.23585
3.2401
3.24935
3.2601
3.2701
3.2761
3.2761
3.26985
3.25885
3.2501
3.24635
3.2426
3.2331
3.21635
3.2021
3.19435
3.1951
3.2011
3.2111
3.22335
3.23485
3.2436
3.2501
3.25485
3.2616
3.2701
3.2791
3.28385
3.28035
3.27135
3.2586
3.2451
3.2366
3.2361
3.2426
3.25385
3.26985
3.28485
3.29935
3.31385
3.3336
3.35135
3.36285
3.36385
3.3576
3.3471
3.33035
3.31085
3.28835
3.26135
3.2396
3.22635
3.2211
3.2231
3.2296
3.2356
3.2396
3.2526
3.27635
3.29885
3.3126
3.31535
3.30185
3.2801
3.2511
3.2216
3.1991
3.1856
3.1786
3.17685
3.17685
3.1701
3.1631
3.1636
3.1771
3.1991
3.2181
3.2251
3.22735
3.23285
3.23935
3.24535
3.25485
3.2761
3.31535
3.3746
3.45211
3.54811
3.65536
3.77037
3.89562
4.03462
4.17688
4.31638
4.45089
4.58089
4.70989
4.83365
4.9459
5.05065
5.16066
5.28616
5.43267
5.58892
5.72867
5.80918
5.80043
5.70442
5.54417
5.33316
5.08641
4.8284
4.57814
4.34338
4.13088
3.94262
3.78087
3.65411
3.56261
3.49811
3.45811
3.4336
3.4076
3.37785
3.3446
3.3016
3.2461
3.18035
3.1081
3.02809
2.94359
2.85459
2.75883
2.66208
2.57858
2.51583
2.47383
2.45633
2.46383
2.48808
2.52758
2.58458
2.65058
2.72558
2.81134
2.89759
2.97309
3.03834
3.09209
3.13235
3.1581
3.1766
3.18735
3.19635
3.2051
3.2146
3.22535
3.23785
3.25435
3.2716
3.28385
3.29085
3.2866
3.2706
3.25135
3.23285
3.21385
3.1901
3.1661
3.14635
3.1371
3.14235
3.15785
3.18035
3.2071
3.23835
3.26935
3.2906
3.30385
3.3101
3.30435
3.2901
3.26835
3.24435
3.22135
3.20585
3.1966
3.18835
3.1881
3.19835
3.21935
3.2476
3.2776
3.29935
3.3111
3.3196
3.32535
3.3251
3.32185
3.31385
3.30235
3.29185
3.28585
3.2821
3.2821
3.28385
3.2871
3.2926
3.3026
3.31635
3.32785
3.34035
3.3536
3.3661
3.37385
3.3726
3.36485
3.3511
3.3371
3.32585
3.32185
3.3291
3.3461
3.36335
3.37985
3.39535
3.41185
3.4246
3.42885
3.4291
3.42385
3.4116
3.40185
3.3931
3.38185
3.3711
3.3641
3.3621
3.3681
3.37935
3.3916
3.40635
3.42335
3.4356
3.43886
3.43485
3.42235
3.4056
3.39085
3.38185
3.3736
3.3616
3.35385
3.3541
3.3596
3.3701
3.3836
3.40035
3.42285
3.44886
3.47411
3.50011
3.52536
3.54586
3.55736
3.56236
3.56411
3.55886
3.54686
3.53336
3.52386
3.52061
3.52311
3.53436
3.55236
3.57561
3.60411
3.63061
3.64986
3.66011
3.66036
3.65086
3.63611
3.62136
3.60586
3.58936
3.57761
3.57311
3.57611
3.59261
3.62061
3.64936
3.67936
3.70861
3.73436
3.75687
3.77487
3.78862
3.79637
3.79612
3.79087
3.77662
3.75711
3.74711
3.75261
3.77237
3.80887
3.85162
3.89237
3.93187
3.97187
4.00512
4.02812
4.03912
4.03712
4.02312
4.00462
3.99012
3.98137
3.98262
3.99362
4.00812
4.02537
4.04562
4.06637
4.08637
4.10938
4.13838
4.16513
4.18238
4.18813
4.18163
4.16463
4.14688
4.12688
4.10463
4.08137
4.06137
4.04612
4.04037
4.04687
4.05962
4.08037
4.10488
4.13138
4.14638
4.14763
4.13488
4.10963
4.07562
4.03812
4.00312
3.97012
3.94187
3.91912
3.90087
3.88862
3.88162
3.87262
3.85487
3.83512
3.81912
3.80112
3.77787
3.74886
3.71586
3.68186
3.64336
3.60111
3.55636
3.50861
3.46261
3.42335
3.39985
3.38985
3.38535
3.38585
3.3961
3.4096
3.4176
3.41385
3.39935
3.37485
3.34585
3.31485
3.28135
3.24535
3.2131
3.18835
3.1701
3.1601
3.1586
3.1571
3.15885
3.1661
3.17335
3.17835
3.1801
3.17435
3.16285
3.15535
3.15135
3.1416
3.1221
3.10184
3.08534
3.07184
3.06559
3.06459
3.06359
3.05884
3.05534
3.05784
3.06059
3.06109
3.06234
3.06159
3.05784
3.04984
3.03609
3.02059
3.00534
2.99559
2.99259
2.99634
3.00609
3.01859
3.03534
3.05384
3.06809
3.07684
3.08109
3.07809
3.06784
3.05809
3.04984
3.03984
3.02509
3.01084
3.00384
3.00684
3.01609
3.02834
3.04259
3.06409
3.08959
3.10759
3.11435
3.11835
3.11685
3.1096
3.10084
3.08759
3.06959
3.04809
3.02984
3.02384
3.02809
3.04209
3.06059
3.07934
3.09909
3.1186
3.1331
3.14535
3.1556
3.1536
3.1416
3.1276
3.1146
3.10209
3.09109
3.08484
3.08709
3.09534
3.1101
3.12385
3.13685
3.1496
3.1616
3.1686
3.1706
3.1651
3.14985
3.1321
3.1171
3.10309
3.09059
3.08334
3.08359
3.08809
3.09209
3.10084
3.1171
3.1371
3.1596
3.1806
3.19385
3.19685
3.1891
3.17735
3.1621
3.14435
3.12585
3.10234
3.07259
3.04934
3.04234
3.04734
3.06259
3.08559
3.1166
3.1596
3.2056
3.2411
3.2636
3.2746
3.2776
3.27135
3.25635
3.2316
3.1971
3.1591
3.12485
3.10084
3.08759
3.08434
3.08584
3.09459
3.1116
3.13935
3.17635
3.21535
3.25235
3.2756
3.27635
3.25785
3.2306
3.2021
3.17785
3.15935
3.14685
3.1431
3.1461
3.14985
3.1566
3.16985
3.1901
3.2101
3.22635
3.23285
3.2276
3.21285
3.19035
3.1601
3.1206
3.08709
3.06859
3.06309
3.06659
3.08134
3.10309
3.1286
3.15285
3.17135
3.1801
3.1886
3.1956
3.19585
3.1906
3.1791
3.1676
3.1556
3.14585
3.1441
3.14735
3.1561
3.1646
3.1751
3.18735
3.20485
3.2231
3.23885
3.24985
3.2546
3.2481
3.2336
3.2131
3.18785
3.16235
3.14285
3.13135
3.12485
3.1256
3.1301
3.1361
3.1446
3.15985
3.17685
3.18785
3.18885
3.1831
3.1791
3.18085
3.1881
3.19135
3.18985
3.18835
3.18885
3.1921
3.1971
3.19985
3.1996
3.20285
3.2101
3.2151
3.21685
3.2196
3.22335
3.2251
3.22135
3.21085
3.19535
3.18185
3.17635
3.1746
3.1766
3.1856
3.19435
3.20585
3.22335
3.24585
3.26585
3.27685
3.27935
3.2696
3.2506
3.2241
3.1986
3.18335
3.17785
3.1836
3.19785
3.2161
3.23385
3.2451
3.2491
3.2541
3.2616
3.26935
3.2771
3.2786
3.26685
3.24785
3.2321
3.22585
3.2171
3.2041
3.19485
3.18785
3.1901
3.20835
3.23685
3.2621
3.27785
3.28935
3.2986
3.3026
3.30335
3.2961
3.28685
3.2766
3.2571
3.2276
3.1991
3.1816
3.17735
3.18885
3.2081
3.2276
3.2466
3.2701
3.29635
3.31085
3.3136
3.30685
3.29135
3.27185
3.25185
3.23185
3.2106
3.19585
3.18835
3.1891
3.1971
3.20885
3.21785
3.23035
3.25035
3.27135
3.2851
3.28785
3.28235
3.2696
3.2531
3.2351
3.21685
3.2021
3.1911
3.18385
3.1846
3.19335
3.20335
3.21735
3.2401
3.26885
3.2966
3.31685
3.32985
3.32935
3.31485
3.29485
3.27485
3.25335
3.2316
3.20885
3.1926
3.18935
3.19885
3.2161
3.23885
3.26185
3.2871
3.3126
3.3311
3.3411
3.34035
3.3326
3.32185
3.3081
3.29435
3.27935
3.26135
3.24135
3.22585
3.2271
3.24435
3.26285
3.27985
3.29885
3.31635
3.32735
3.3326
3.3361
3.33535
3.32935
3.3186
3.3026
3.28435
3.2711
3.2636
3.25735
3.2551
3.2606
3.2706
3.28585
3.3051
3.31835
3.3206
3.3191
3.3151
3.3106
3.3076
3.3041
3.29635
3.28935
3.2886
3.2861
3.28335
3.2871
3.29685
3.30785
3.32135
3.33735
3.35185
3.35835
3.3551
3.34685
3.3376
3.32735
3.3116
3.2916
3.2741
3.2641
3.26185
3.26985
3.2811
3.2931
3.3166
3.3531
3.39235
3.41985
3.4281
3.42135
3.40435
3.3846
3.36335
3.3411
3.3171
3.2961
3.2816
3.27685
3.28335
3.2996
3.3201
3.3411
3.3636
3.3841
3.3971
3.39785
3.3901
3.3791
3.3671
3.35335
3.3361
3.3171
3.3051
3.3021
3.30585
3.3116
3.31435
3.31435
3.31635
3.3246
3.33735
3.35035
3.36035
3.36485
3.36485
3.3656
3.3651
3.35785
3.3426
3.3261
3.3071
3.2901
3.2876
3.30085
3.3216
3.34835
3.3796
3.40285
3.4146
3.41785
3.41285
3.3996
3.3856
3.37135
3.3541
3.3356
3.32035
3.3081
3.29835
3.2926
3.28735
3.2846
3.2931
3.3121
3.3331
3.35135
3.36335
3.36985
3.3741
3.37735
3.3761
3.3686
3.36085
3.35935
3.3626
3.37085
3.3866
3.41585
3.45411
3.49586
3.53686
3.57161
3.59611
3.61236
3.61786
3.61461
3.60411
3.58686
3.56161
3.53311
3.51286
3.50211
3.49636
3.49111
3.49361
3.50561
3.52686
3.55611
3.58386
3.60361
3.61911
3.63136
3.63836
3.64161
3.63811
3.62711
3.61486
3.60736
3.60261
3.60686
3.62161
3.63686
3.64761
3.65711
3.66636
3.66711
3.65761
3.63986
3.61261
3.58011
3.54761
3.51361
3.48036
3.45111
3.4311
3.4191
3.41285
3.40935
3.4001
3.39835
3.41135
3.4321
3.44761
3.45136
3.44636
3.4346
3.4231
3.4146
3.40585
3.39235
3.37935
3.3716
3.3696
3.3711
3.3726
3.37285
3.37435
3.37785
3.3831
3.3906
3.3956
3.39435
3.3801
3.3561
3.32835
3.29685
3.2646
3.23885
3.22735
3.22585
3.2311
3.2411
3.25585
3.27335
3.29535
3.3141
3.3246
3.32885
3.32385
3.30885
3.29135
3.2731
3.2516
3.2276
3.20985
3.2061
3.2116
3.2251
3.24485
3.2676
3.2896
3.30635
3.31185
3.3131
3.31435
3.3096
3.2961
3.28035
3.26185
3.2441
3.23485
3.2391
3.25185
3.2671
3.2881
3.3096
3.3306
3.35085
3.3711
3.38485
3.3866
3.3851
3.37985
3.3681
3.35285
3.3326
3.30885
3.29235
3.28485
3.2826
3.2796
3.28185
3.2841
3.2831
3.28335
3.2891
3.29235
3.2906
3.28485
3.2746
3.2591
3.23835
3.2161
3.1941
3.1736
3.16335
3.16785
3.18685
3.2236
3.2751
3.3376
3.41385
3.50536
3.60386
3.70061
3.79012
3.87137
3.95787
4.05937
4.17388
4.29113
4.41114
4.54314
4.69064
4.8459
5.0019
5.15191
5.29866
5.45342
5.61867
5.78768
5.92843
6.00643
5.98768
5.86993
5.67442
5.43192
5.16216
4.8869
4.62739
4.39613
4.18813
4.00362
3.85287
3.72886
3.62586
3.53511
3.45161
3.3756
3.3056
3.2316
3.1581
3.08484
3.00609
2.92134
2.83409
2.74908
2.66683
2.59408
2.53583
2.49008
2.46333
2.46033
2.47483
2.50083
2.53583
2.57733
2.62633
2.68508
2.74908
2.81709
2.88634
2.95884
3.02934
3.09184
3.1491
3.2006
3.24035
3.2706
3.2976
3.31885
3.33085
3.33185
3.32485
3.30885
3.28935
3.2696
3.25235
3.23285
3.2146
3.20335
3.20285
3.21035
3.22185
3.23785
3.26285
3.2966
3.3286
3.34935
3.36035
3.36335
3.35985
3.34885
3.32885
3.29835
3.26285
3.2301
3.2086
3.2016
3.20885
3.22485
3.2421
3.26635
3.29885
3.3306
3.3566
3.3781
3.3916
3.3936
3.3901
3.3801
3.3651
3.3516
3.34385
3.33735
3.33085
3.33135
3.3371
3.35035
3.36885
3.38935
3.4061
3.4226
3.44161
3.45736
3.46286
3.46061
3.44986
3.43035
3.40685
3.38185
3.3576
3.33685
3.3331
3.3431
3.36085
3.38485
3.4106
3.42785
3.43485
3.43761
3.43686
3.43535
3.43686
3.43736
3.4346
3.4256
3.4161
3.41335
3.41585
3.4276
3.44136
3.45561
3.47461
3.49636
3.51511
3.52661
3.52961
3.52511
3.51911
3.51311
3.50461
3.49136
3.48061
3.47186
3.46686
3.46786
3.47661
3.48686
3.49911
3.51611
3.53511
3.54786
3.55411
3.55686
3.55511
3.55386
3.54961
3.54311
3.53336
3.52811
3.53111
3.54661
3.57386
3.60861
3.64011
3.66986
3.70236
3.73386
3.75761
3.77112
3.77387
3.76512
3.75211
3.73711
3.71786
3.69286
3.66936
3.65461
3.65536
3.67261
3.69536
3.71386
3.73011
3.74936
3.77162
3.80137
3.83412
3.85812
3.87437
3.89287
3.91462
3.92737
3.92712
3.92112
3.91812
3.92062
3.93012
3.94712
3.96837
3.99412
4.02287
4.04537
4.05437
4.04962
4.04237
4.04437
4.05287
4.06162
4.06637
4.06687
4.06837
4.07262
4.08462
4.10337
4.12313
4.14513
4.16963
4.19788
4.22663
4.25313
4.27363
4.28513
4.28638
4.28613
4.28538
4.27788
4.26238
4.24838
4.24138
4.24288
4.25388
4.26513
4.27713
4.28813
4.29713
4.30288
4.30488
4.30113
4.28613
4.25888
4.22313
4.17888
4.12588
4.07187
4.02212
3.98287
3.95737
3.94837
3.95187
3.96362
3.97612
3.98112
3.97462
3.95912
3.93537
3.90262
3.86487
3.82462
3.78137
3.73511
3.68811
3.64386
3.60336
3.57161
3.55211
3.53861
3.52911
3.51986
3.50836
3.49511
3.47836
3.45286
3.4151
3.3691
3.3276
3.2921
3.25835
3.2271
3.19735
3.17035
3.15335
3.14785
3.14735
3.14635
3.14735
3.15385
3.16085
3.1576
3.1461
3.13285
3.12285
3.1116
3.09084
3.06084
3.02984
3.00509
2.98334
2.95909
2.93984
2.93534
2.94709
2.97459
3.00584
3.02684
3.03609
3.03859
3.03759
3.03284
3.02359
3.00934
2.98884
2.97084
2.95909
2.95334
2.95359
2.95859
2.96884
2.98509
3.00459
3.01859
3.02634
3.02759
3.02259
3.00934
2.99509
2.97834
2.95859
2.93684
2.91884
2.90809
2.90284
2.90709
2.92109
2.94084
2.96109
2.98609
3.01059
3.02459
3.02909
3.03059
3.02509
3.01659
3.00084
2.97109
2.93909
2.92334
2.92534
2.93859
2.95884
2.98059
3.00259
3.02759
3.05509
3.07884
3.09484
3.10284
3.10709
3.10559
3.09784
3.08084
3.05359
3.02209
2.99734
2.98709
2.98984
3.00309
3.01809
3.03234
3.04634
3.06609
3.08459
3.09459
3.09734
3.09284
3.08359
3.07034
3.05509
3.03809
3.02559
3.01634
3.01034
3.01184
3.02709
3.05534
3.08959
3.1271
3.1571
3.1731
3.1766
3.16535
3.1396
3.10985
3.08209
3.05909
3.03984
3.02809
3.02309
3.02384
3.03084
3.03909
3.04434
3.05059
3.06584
3.08359
3.09884
3.10659
3.10734
3.10384
3.09959
3.09284
3.07959
3.05934
3.04109
3.03234
3.03084
3.03609
3.04784
3.05834
3.06659
3.07909
3.09209
3.09759
3.10059
3.10034
3.09434
3.09184
3.08884
3.08109
3.07009
3.06184
3.05809
3.06184
3.07059
3.08284
3.09459
3.10784
3.1251
3.1436
3.1576
3.1621
3.1606
3.1556
3.14935
3.13335
3.11185
3.09309
3.08759
3.08984
3.09309
3.09834
3.10034
3.09759
3.10509
3.12685
3.15135
3.1716
3.1831
3.1856
3.18285
3.17785
3.1681
3.15185
3.1341
3.1171
3.09759
3.08359
3.08209
3.09384
3.11335
3.1346
3.1531
3.16435
3.17085
3.1741
3.1751
3.17135
3.16485
3.15235
3.13185
3.10534
3.08284
3.06584
3.05484
3.05409
3.06259
3.07884
3.09709
3.11685
3.1351
3.14785
3.1541
3.1531
3.13985
3.1166
3.09109
3.06459
3.03859
3.01909
3.00984
3.01109
3.02184
3.03409
3.04859
3.07309
3.10684
3.1391
3.15935
3.16635
3.1636
3.15285
3.13885
3.12135
3.09659
3.07134
3.05234
3.04109
3.04084
3.05159
3.06559
3.08134
3.09909
3.11935
3.1341
3.1411
3.14185
3.1341
3.12085
3.10234
3.07409
3.04109
3.02109
3.01959
3.03134
3.05059
3.07159
3.08259
3.08934
3.10059
3.1231
3.14835
3.1611
3.16485
3.1646
3.15535
3.13635
3.11535
3.09184
3.07484
3.06659
3.06959
3.08084
3.09759
3.11535
3.13185
3.1511
3.17085
3.1841
3.1881
3.18485
3.1761
3.1621
3.14335
3.1221
3.09759
3.07509
3.06409
3.07009
3.08809
3.11085
3.13085
3.14985
3.16985
3.1881
3.19885
3.1996
3.19235
3.17385
3.1541
3.1346
3.1156
3.09584
3.08509
3.08834
3.10184
3.1186
3.13485
3.1496
3.16635
3.1871
3.20485
3.21935
3.2306
3.2326
3.22685
3.21135
3.18885
3.16385
3.13735
3.1136
3.10234
3.10159
3.10734
3.11635
3.1281
3.1401
3.1506
3.1581
3.15785
3.15485
3.1546
3.14885
3.1401
3.1281
3.10935
3.08759
3.07509
3.07509
3.08659
3.10985
3.13885
3.1651
3.18735
3.2121
3.2351
3.24885
3.2516
3.2441
3.2271
3.20485
3.1816
3.1621
3.1501
3.1451
3.1436
3.14635
3.1536
3.16085
3.1641
3.16485
3.17535
3.1916
3.21835
3.21835
3.2206
3.21935
3.21185
3.19585
3.1771
3.1596
3.1501
3.15085
3.1631
3.1786
3.19735
3.2211
3.2491
3.2716
3.2856
3.29335
3.28885
3.2746
3.25585
3.2286
3.19285
3.16285
3.14535
3.13935
3.1436
3.15885
3.1786
3.2056
3.2346
3.26085
3.27885
3.2896
3.29835
3.2981
3.28885
3.2731
3.25185
3.22685
3.2031
3.1891
3.1966
3.21485
3.2571
3.27935
3.29835
3.31035
3.31435
3.30835
3.29335
3.27235
3.2496
3.2316
3.21435
3.20085
3.19835
3.2036
3.2136
3.22785
3.2421
3.2556
3.26985
3.28485
3.2981
3.3076
3.3111
3.3056
3.2941
3.28235
3.27385
3.2631
3.25285
3.24535
3.24185
3.24535
3.25735
3.27285
3.28835
3.30485
3.31485
3.31885
3.3201
3.3116
3.29385
3.2766
3.2601
3.24185
3.2216
3.2086
3.20235
3.2046
3.21535
3.2301
3.24935
3.27235
3.30185
3.32535
3.33785
3.3396
3.3311
3.3191
3.3066
3.2926
3.2751
3.25685
3.24385
3.23035
3.21435
3.2031
3.19485
3.1976
3.21935
3.2541
3.28335
3.3001
3.30735
3.30635
3.2996
3.2906
3.28135
3.2686
3.25485
3.2466
3.24585
3.2531
3.26835
3.28585
3.29935
3.3096
3.32185
3.33185
3.3356
3.3326
3.32035
3.30335
3.2841
3.26335
3.2366
3.2116
3.19435
3.1821
3.17385
3.1721
3.18185
3.2016
3.22735
3.2586
3.2851
3.3001
3.30585
3.30835
3.3036
3.2916
3.27535
3.25635
3.24085
3.23135
3.2271
3.22885
3.2376
3.24685
3.2576
3.2666
3.27635
3.2826
3.28135
3.2736
3.2651
3.2591
3.2536
3.24635
3.24185
3.24635
3.25485
3.2666
3.28585
3.3146
3.35035
3.3866
3.4221
3.45411
3.47861
3.49536
3.50561
3.51036
3.51361
3.51061
3.50136
3.48236
3.46036
3.43661
3.4166
3.4081
3.4106
3.41835
3.42885
3.44311
3.46886
3.50161
3.52886
3.54661
3.55636
3.56236
3.56311
3.56311
3.56261
3.56211
3.55986
3.56736
3.58236
3.59861
3.61311
3.62511
3.63111
3.63161
3.62636
3.61561
3.60086
3.58036
3.56036
3.53836
3.51186
3.48286
3.45636
3.43335
3.41485
3.40435
3.4011
3.4051
3.4091
3.41635
3.4231
3.4211
3.4096
3.3986
3.3876
3.3766
3.3661
3.3526
3.33485
3.3171
3.3041
3.29685
3.29635
3.2996
3.30535
3.3166
3.33335
3.34635
3.3481
3.3391
3.3246
3.3041
3.2836
3.2636
3.24185
3.22085
3.2041
3.1926
3.1886
3.2001
3.22385
3.2541
3.2841
3.3096
3.32635
3.3331
3.32885
3.3131
3.2931
3.2801
3.26735
3.2436
3.21535
3.19735
3.1901
3.1851
3.1831
3.18485
3.1951
3.2141
3.2331
3.24635
3.2561
3.26185
3.26185
3.2596
3.2561
3.2486
3.23735
3.22685
3.2191
3.21635
3.2166
3.22285
3.2346
3.2486
3.26585
3.2816
3.29535
3.3026
3.3031
3.29835
3.2901
3.2786
3.26535
3.2506
3.24085
3.2371
3.23285
3.2261
3.21585
3.2061
3.2016
3.21185
3.22935
3.24535
3.25585
3.25785
3.24435
3.2161
3.17985
3.14035
3.10259
3.08134
3.08284
3.10484
3.14535
3.20135
3.26735
3.33985
3.4246
3.51786
3.60936
3.69711
3.78337
3.86912
3.95712
4.04912
4.14888
4.25813
4.38313
4.52064
4.66189
4.8054
4.95215
5.10116
5.24991
5.40067
5.55317
5.70267
5.82743
5.89193
5.86068
5.73542
5.54092
5.30316
5.03415
4.76515
4.51914
4.30413
4.12688
3.98287
3.86762
3.77537
3.70036
3.63161
3.55761
3.48111
3.39985
3.3096
3.2186
3.1266
3.02809
2.92559
2.82784
2.73758
2.65883
2.59258
2.53958
2.50233
2.48158
2.47808
2.48833
2.51083
2.54358
2.58033
2.61808
2.66358
2.71033
2.75633
2.80859
2.87134
2.94684
3.02784
3.10935
3.18285
3.24335
3.29135
3.3321
3.3576
3.36785
3.36335
3.3466
3.3236
3.30035
3.2796
3.25835
3.23885
3.2261
3.22085
3.22235
3.22985
3.23935
3.2491
3.26535
3.28135
3.2936
3.30335
3.3146
3.3206
3.3171
3.3101
3.3001
3.2846
3.2716
3.26435
3.2631
3.26385
3.2691
3.27785
3.2911
3.30885
3.32535
3.33585
3.3386
3.3356
3.3286
3.31635
3.3006
3.2851
3.2696
3.2566
3.2511
3.2556
3.2666
3.27785
3.2871
3.29635
3.3106
3.33085
3.3521
3.3661
3.36735
3.35385
3.34135
3.33685
3.33485
3.3301
3.33035
3.33285
3.33435
3.33685
3.3431
3.3511
3.36085
3.37785
3.3946
3.40285
3.4016
3.39035
3.3761
3.36935
3.36735
3.3611
3.3446
3.33285
3.33385
3.3441
3.3571
3.36835
3.37735
3.38835
3.40785
3.42985
3.44786
3.46286
3.46736
3.45886
3.44811
3.43761
3.42335
3.4071
3.3951
3.3896
3.39085
3.40035
3.41585
3.43585
3.46161
3.49161
3.51611
3.53011
3.53811
3.53886
3.53211
3.52036
3.50036
3.47786
3.46111
3.45311
3.45211
3.45586
3.46511
3.48311
3.51036
3.54186
3.57161
3.59586
3.61211
3.62161
3.61986
3.61286
3.60711
3.60011
3.58586
3.57211
3.56611
3.56311
3.57011
3.59011
3.61936
3.65886
3.70461
3.75011
3.78462
3.80487
3.81412
3.81212
3.80837
3.80437
3.79887
3.78937
3.77862
3.77387
3.77112
3.77237
3.78637
3.80987
3.83937
3.87312
3.90687
3.93512
3.95937
3.97587
3.98862
3.99587
4.00187
4.00537
4.00412
4.00137
3.99987
4.00062
4.00362
4.01537
4.03537
4.06212
4.09388
4.12763
4.15163
4.16188
4.16413
4.16188
4.15563
4.14763
4.13988
4.13313
4.12838
4.12963
4.13388
4.13288
4.12863
4.13113
4.14588
4.16888
4.19638
4.22463
4.24663
4.25313
4.24488
4.22788
4.20538
4.17763
4.14038
4.10063
4.06437
4.03287
4.01212
4.00162
3.99287
3.97937
3.96237
3.94937
3.93812
3.91887
3.88712
3.84912
3.81012
3.77212
3.73261
3.69011
3.65461
3.62961
3.60661
3.58436
3.56411
3.54711
3.53536
3.52711
3.51761
3.50086
3.47736
3.45011
3.4171
3.38435
3.3491
3.3091
3.2686
3.22885
3.1971
3.1741
3.1601
3.1501
3.14385
3.14335
3.1516
3.1666
3.18285
3.1911
3.1876
3.17635
3.16035
3.13735
3.10484
3.07059
3.04034
3.01409
2.99359
2.98459
2.98884
3.00234
3.02084
3.03784
3.04734
3.05009
3.04859
3.04159
3.02584
3.00684
2.98809
2.97034
2.95084
2.93334
2.92184
2.91734
2.92209
2.93334
2.94834
2.96809
2.99409
3.01684
3.03034
3.03009
3.01734
2.99834
2.97809
2.95359
2.92409
2.89834
2.88309
2.88334
2.89784
2.92209
2.94859
2.97434
2.99709
3.01809
3.02959
3.02909
3.01934
3.00284
2.98259
2.96159
2.93859
2.91259
2.88884
2.87409
2.86934
2.87334
2.88709
2.90409
2.92184
2.94234
2.96184
2.97184
2.97309
2.96809
2.96084
2.95359
2.94984
2.94959
2.94834
2.94784
2.94959
2.95634
2.96734
2.98159
2.99434
3.00359
3.01109
3.01909
3.02009
3.01134
3.00059
2.98534
2.97259
2.96534
2.95884
2.95259
2.95259
2.95809
2.96634
2.97684
2.99109
3.00809
3.02634
3.04659
3.06709
3.08384
3.09609
3.10359
3.10134
3.08884
3.06509
3.03409
3.00409
2.98584
2.98259
2.99209
3.01034
3.03334
3.05884
3.08534
3.1136
3.1381
3.1561
3.1656
3.16935
3.16785
3.16085
3.1496
3.1336
3.1116
3.09134
3.07709
3.06559
3.05934
3.06059
3.06884
3.08434
3.10334
3.1206
3.13285
3.14385
3.15135
3.1541
3.15335
3.15085
3.1391
3.1186
3.10084
3.09234
3.09159
3.09784
3.10759
3.11785
3.13035
3.1481
3.1626
3.17235
3.1716
3.1646
3.1551
3.1416
3.12185
3.09609
3.07109
3.05459
3.04609
3.04159
3.04809
3.06359
3.08459
3.11235
3.14035
3.1596
3.1686
3.16485
3.1516
3.1406
3.13185
3.1206
3.10734
3.09784
3.09384
3.09259
3.09709
3.10659
3.11685
3.13685
3.1631
3.1871
3.19985
3.20185
3.19285
3.1751
3.1496
3.1231
3.09834
3.07534
3.06209
3.05834
3.06159
3.07034
3.08659
3.1091
3.1346
3.1616
3.18485
3.2001
3.2091
3.21285
3.20385
3.18785
3.16935
3.15035
3.1291
3.1106
3.10034
3.09684
3.10359
3.1156
3.12435
3.13135
3.14735
3.17235
3.19535
3.20935
3.2146
3.21535
3.21785
3.21685
3.2061
3.1901
3.17685
3.1716
3.17235
3.1806
3.19485
3.21185
3.22835
3.2421
3.25285
3.2581
3.2541
3.2441
3.22735
3.2091
3.19335
3.1761
3.1566
3.1381
3.1231
3.1156
3.1246
3.14735
3.1766
3.20535
3.2301
3.2451
3.25285
3.25535
3.24735
3.2306
3.21585
3.20335
3.1861
3.1631
3.1426
3.12685
3.11935
3.1221
3.13285
3.1476
3.16435
3.18435
3.2041
3.2181
3.22835
3.2316
3.22935
3.22535
3.2141
3.1931
3.16485
3.13885
3.12185
3.1111
3.10559
3.10509
3.10835
3.1236
3.1476
3.17335
3.19585
3.21385
3.22585
3.23385
3.24035
3.24335
3.23685
3.2231
3.2116
3.20485
3.20235
3.20235
3.2031
3.20535
3.20985
3.2161
3.2206
3.2191
3.21285
3.20035
3.18785
3.1796
3.17485
3.1691
3.1661
3.17085
3.17935
3.1891
3.20135
3.20985
3.2171
3.2286
3.2406
3.24735
3.2476
3.2421
3.23085
3.21285
3.18635
3.1526
3.1241
3.1101
3.10784
3.1136
3.12585
3.1441
3.16385
3.1856
3.21285
3.2396
3.2596
3.27335
3.2786
3.27185
3.2556
3.2381
3.2191
3.19585
3.1761
3.16435
3.1581
3.1581
3.16235
3.1681
3.1786
3.19885
3.22685
3.2496
3.2631
3.2646
3.2576
3.24485
3.2321
3.2201
3.20785
3.19685
3.18985
3.1901
3.1976
3.20685
3.21285
3.2166
3.2211
3.22685
3.23135
3.2336
3.2301
3.22035
3.2086
3.1936
3.1791
3.16685
3.1626
3.16585
3.1746
3.18335
3.1966
3.2171
3.24135
3.2681
3.29335
3.31085
3.3221
3.3206
3.30585
3.28885
3.26985
3.2451
3.21835
3.1976
3.18735
3.18985
3.20035
3.2116
3.2231
3.23135
3.2446
3.2626
3.2806
3.29835
3.3136
3.32035
3.3196
3.3136
3.29535
3.26935
3.25285
3.24835
3.2506
3.2571
3.2651
3.27335
3.28635
3.3076
3.3311
3.3486
3.35585
3.3486
3.3281
3.30785
3.28685
3.26085
3.23535
3.21985
3.2141
3.21585
3.2271
3.24385
3.2656
3.29485
3.3226
3.34235
3.3526
3.3566
3.35685
3.3506
3.3366
3.3176
3.2951
3.2731
3.25885
3.2546
3.26485
3.2826
3.3006
3.31435
3.32785
3.3431
3.35285
3.3561
3.34835
3.3291
3.3056
3.28135
3.2596
3.2346
3.21435
3.2081
3.21285
3.2231
3.23535
3.24835
3.26185
3.2766
3.2866
3.2896
3.2996
3.30135
3.3031
3.29685
3.28485
3.2751
3.2681
3.2666
3.27385
3.2881
3.3051
3.32435
3.3441
3.3601
3.37085
3.3751
3.3741
3.3656
3.35035
3.32635
3.2946
3.26285
3.2406
3.23035
3.2286
3.23535
3.2496
3.2711
3.2961
3.32285
3.34685
3.36285
3.36985
3.3691
3.36385
3.3591
3.35185
3.3456
3.3406
3.3401
3.3471
3.35735
3.37585
3.40435
3.43986
3.47561
3.50761
3.53086
3.54336
3.54536
3.53836
3.52136
3.50811
3.49836
3.49011
3.48111
3.46961
3.45886
3.45736
3.46736
3.48261
3.50386
3.53386
3.56661
3.59636
3.61736
3.62936
3.63261
3.62711
3.61936
3.61286
3.60411
3.59386
3.58811
3.58911
3.58936
3.59036
3.59186
3.59811
3.61061
3.62661
3.63461
3.62836
3.60861
3.57761
3.54386
3.51261
3.48461
3.45361
3.42585
3.4061
3.3931
3.3871
3.39185
3.4011
3.41535
3.43611
3.45561
3.46511
3.46361
3.45311
3.4346
3.4131
3.3866
3.35885
3.33185
3.30985
3.2971
3.2876
3.28385
3.28435
3.2856
3.28835
3.29585
3.3066
3.3081
3.30135
3.2896
3.27235
3.2576
3.24935
3.2431
3.2291
3.2086
3.19435
3.19485
3.2051
3.2211
3.23385
3.2436
3.2596
3.28185
3.2961
3.2996
3.2976
3.29085
3.2771
3.2566
3.23335
3.21135
3.1966
3.1906
3.19485
3.2066
3.2221
3.23935
3.26085
3.27735
3.28285
3.27785
3.2751
3.27485
3.26735
3.2561
3.2456
3.2341
3.2211
3.2091
3.1966
3.19085
3.1956
3.21035
3.23235
3.2581
3.2891
3.31385
3.3301
3.34285
3.3486
3.3446
3.3371
3.3286
3.3186
3.30335
3.2901
3.27935
3.27135
3.2676
3.26385
3.2586
3.26035
3.27185
3.2816
3.27935
3.2656
3.24085
3.21035
3.17685
3.1431
3.1161
3.09909
3.09909
3.12285
3.17035
3.23935
3.3236
3.42385
3.53761
3.66361
3.79237
3.91912
4.04612
4.16738
4.28413
4.40063
4.51539
4.63264
4.7529
4.8739
4.9999
5.13841
5.29066
5.45217
5.61617
5.77318
5.90018
5.95168
5.90443
5.76243
5.54817
5.29591
5.02515
4.7529
4.49639
4.26788
4.07187
3.90887
3.77887
3.67486
3.58961
3.52086
3.46936
3.4211
3.3656
3.30585
3.2451
3.1811
3.1121
3.03684
2.94909
2.85659
2.76833
2.68983
2.62833
2.58408
2.55408
2.54083
2.54558
2.56533
2.59783
2.63908
2.68408
2.73658
2.79434
2.85884
2.92659
2.99084
3.04484
3.09334
3.1391
3.18285
3.22235
3.25535
3.2831
3.30585
3.32185
3.3256
3.31335
3.29435
3.2776
3.26485
3.2576
3.2501
3.2376
3.21885
3.20385
3.20185
3.2121
3.23235
3.25835
3.2906
3.32985
3.3731
3.40535
3.42135
3.4206
3.4046
3.3776
3.3481
3.3236
3.3041
3.2901
3.27985
3.27385
3.2746
3.28685
3.3056
3.3281
3.34985
3.3701
3.38435
3.3916
3.39285
3.3856
3.3736
3.3611
3.34685
3.32835
3.3081
3.2951
3.28735
3.2851
3.2971
3.31385
3.32785
3.34335
3.36235
3.3786
3.38635
3.3866
3.37785
3.3616
3.3451
3.3316
3.31985
3.3081
3.30035
3.29835
3.3051
3.3261
3.3551
3.38535
3.4126
3.43535
3.45136
3.46136
3.46686
3.46211
3.45236
3.43936
3.42185
3.39885
3.3776
3.3631
3.35785
3.36335
3.3796
3.39985
3.4261
3.45886
3.49186
3.51161
3.51686
3.51361
3.50586
3.49636
3.48861
3.47886
3.46611
3.45111
3.43836
3.4316
3.43611
3.45236
3.47136
3.48986
3.51086
3.53961
3.57011
3.58936
3.59461
3.58961
3.57511
3.55611
3.53811
3.52336
3.51536
3.51161
3.51061
3.51161
3.51986
3.53211
3.55061
3.57636
3.60686
3.63111
3.64486
3.65561
3.66336
3.67261
3.68061
3.68586
3.68561
3.68586
3.69261
3.70636
3.72761
3.75236
3.77787
3.80237
3.82637
3.84212
3.84887
3.85512
3.86662
3.87937
3.89112
3.89437
3.89037
3.87762
3.86412
3.85887
3.86912
3.89637
3.93187
3.97037
4.00837
4.04562
4.07987
4.10813
4.12838
4.14138
4.14588
4.14538
4.14188
4.13463
4.12488
4.12113
4.12688
4.13988
4.15288
4.16113
4.16913
4.18288
4.20688
4.23788
4.26888
4.29138
4.30663
4.31338
4.31838
4.31288
4.29613
4.27413
4.25788
4.24738
4.23938
4.23263
4.22938
4.23088
4.23913
4.25213
4.26288
4.26888
4.27638
4.28138
4.27488
4.25813
4.23763
4.21188
4.17613
4.13563
4.09188
4.05162
4.01912
3.99062
3.96737
3.95162
3.94262
3.93212
3.91512
3.88887
3.85612
3.82012
3.78737
3.75361
3.71236
3.66686
3.62436
3.58936
3.56061
3.53411
3.51086
3.49061
3.47386
3.46736
3.46136
3.44936
3.43135
3.40435
3.37335
3.3426
3.31385
3.28385
3.25235
3.22485
3.2046
3.1911
3.1836
3.1796
3.1796
3.1841
3.1901
3.1876
3.1756
3.16185
3.14635
3.12385
3.10009
3.08009
3.05734
3.03209
3.00984
2.99534
2.98734
2.98284
2.98109
2.98209
2.99084
3.00059
3.00309
3.00034
2.99484
2.98584
2.97484
2.96134
2.94309
2.92784
2.92109
2.91609
2.91009
2.90634
2.91059
2.91659
2.92009
2.93084
2.95534
2.98459
3.00709
3.01509
3.00659
2.98884
2.97034
2.95359
2.93259
2.91034
2.89734
2.89434
2.90109
2.91484
2.93409
2.95834
2.98659
3.01134
3.02609
3.02784
3.02084
3.00834
2.99184
2.96909
2.94184
2.91384
2.89784
2.89609
2.89909
2.90584
2.92109
2.94359
2.96859
2.99359
3.01559
3.03309
3.04859
3.06034
3.06059
3.05334
3.04484
3.03184
3.01434
2.99584
2.98284
2.97809
2.98359
2.99359
3.00234
3.01084
3.02334
3.03284
3.03759
3.03534
3.03309
3.03059
3.02884
3.02609
3.01834
3.00659
2.99934
2.99684
2.99984
3.00384
3.01009
3.02584
3.04809
3.07509
3.10084
3.1176
3.1256
3.1216
3.10609
3.08784
3.06734
3.04834
3.03234
3.02134
3.01984
3.02409
3.03584
3.05159
3.06734
3.08559
3.10359
3.11385
3.1176
3.1146
3.10459
3.08934
3.07409
3.06234
3.05059
3.03884
3.03484
3.03634
3.04209
3.04934
3.05434
3.06059
3.07109
3.08284
3.08934
3.09259
3.09984
3.1091
3.11335
3.1121
3.10409
3.08684
3.06434
3.05109
3.05284
3.06284
3.07559
3.08584
3.09984
3.12185
3.1446
3.15785
3.15785
3.1521
3.1461
3.1366
3.12185
3.10559
3.09034
3.08734
3.09334
3.10484
3.1181
3.12985
3.13535
3.13985
3.1496
3.1616
3.17035
3.1701
3.1636
3.15135
3.1361
3.1201
3.10584
3.09109
3.07859
3.07359
3.08209
3.10059
3.1216
3.1401
3.16035
3.1811
3.19535
3.20285
3.2066
3.20185
3.1881
3.1691
3.14685
3.11835
3.09109
3.07434
3.06859
3.07109
3.08109
3.09159
3.09834
3.10835
3.1206
3.1371
3.1526
3.1621
3.16185
3.1561
3.14785
3.1406
3.13135
3.11335
3.09434
3.07934
3.07209
3.06834
3.06659
3.07284
3.08809
3.10684
3.1231
3.13385
3.1421
3.1496
3.15485
3.1531
3.14585
3.1366
3.13035
3.1321
3.1411
3.15335
3.1686
3.18335
3.1956
3.2076
3.22185
3.23385
3.23635
3.2286
3.21585
3.19935
3.1791
3.15735
3.13485
3.1151
3.10134
3.09459
3.09684
3.10684
3.11885
3.1311
3.14335
3.15435
3.1621
3.1681
3.17035
3.16985
3.1671
3.1606
3.1536
3.1381
3.11885
3.1081
3.10534
3.10359
3.10159
3.09759
3.10209
3.1171
3.1411
3.16685
3.1886
3.2026
3.2026
3.1971
3.1911
3.1851
3.17335
3.1556
3.1411
3.13235
3.13135
3.1336
3.13685
3.14285
3.15335
3.16235
3.1701
3.1786
3.18235
3.1796
3.1751
3.16785
3.1581
3.1451
3.13635
3.1336
3.13785
3.1471
3.1581
3.16785
3.1771
3.1866
3.1991
3.20685
3.2111
3.2121
3.20685
3.1936
3.1696
3.1406
3.11635
3.10209
3.10009
3.10709
3.1181
3.12685
3.13285
3.14385
3.16835
3.2016
3.23035
3.2481
3.2536
3.24635
3.23685
3.22685
3.21135
3.1931
3.1781
3.1671
3.16085
3.1616
3.16685
3.17285
3.18185
3.1976
3.21935
3.23935
3.2471
3.2436
3.2286
3.2116
3.1946
3.1711
3.14685
3.1336
3.1256
3.1196
3.1176
3.1216
3.1291
3.1426
3.16485
3.1876
3.2036
3.2151
3.2236
3.22635
3.22635
3.22635
3.2196
3.20585
3.19285
3.18685
3.18185
3.1821
3.18585
3.1901
3.1986
3.21035
3.2186
3.2181
3.2136
3.2086
3.2051
3.20135
3.19085
3.1791
3.16785
3.1566
3.14885
3.1511
3.16385
3.1836
3.20685
3.2321
3.25985
3.28035
3.28985
3.2936
3.2901
3.2776
3.2601
3.23885
3.2116
3.18085
3.15835
3.14985
3.1516
3.15985
3.1711
3.18435
3.1991
3.21985
3.23585
3.2431
3.24785
3.2491
3.24885
3.24785
3.2426
3.2321
3.2181
3.20685
3.20385
3.21035
3.21885
3.22135
3.2221
3.22835
3.24385
3.25835
3.2671
3.26485
3.2536
3.2361
3.2141
3.1906
3.16885
3.15335
3.14835
3.1541
3.16785
3.18735
3.20635
3.22735
3.25435
3.28035
3.30135
3.31085
3.3066
3.29485
3.2811
3.2676
3.25535
3.2441
3.2376
3.23685
3.2461
3.2676
3.2941
3.30985
3.31585
3.3226
3.32985
3.32985
3.3201
3.30335
3.27985
3.26435
3.2631
3.2686
3.26785
3.26735
3.2736
3.28535
3.2986
3.3081
3.3136
3.32035
3.33335
3.3471
3.34985
3.3441
3.33435
3.3196
3.3031
3.2816
3.25835
3.23535
3.2176
3.2116
3.2161
3.22785
3.24385
3.2636
3.28635
3.30735
3.3231
3.3306
3.32885
3.32085
3.3101
3.2986
3.28535
3.2686
3.25235
3.2431
3.23835
3.23385
3.23335
3.23335
3.2391
3.2551
3.27535
3.2916
3.3046
3.31585
3.32135
3.3196
3.31335
3.30435
3.28835
3.2701
3.2546
3.2466
3.2451
3.24985
3.2576
3.26835
3.2841
3.3026
3.3151
3.3236
3.3306
3.3296
3.31685
3.2931
3.2681
3.24385
3.2221
3.21035
3.21335
3.22485
3.24185
3.2566
3.2721
3.29485
3.3196
3.3366
3.3426
3.3491
3.35535
3.3566
3.34835
3.33335
3.31885
3.3081
3.3031
3.3071
3.31785
3.3341
3.34985
3.37135
3.39935
3.43335
3.46586
3.49386
3.51386
3.52511
3.53061
3.53261
3.52886
3.51736
3.50586
3.49786
3.49361
3.49111
3.48786
3.48811
3.49511
3.50336
3.51211
3.52161
3.53411
3.54761
3.55936
3.57036
3.57536
3.57561
3.57236
3.57061
3.57361
3.57886
3.58511
3.59511
3.61361
3.63361
3.65386
3.66636
3.66361
3.64786
3.62536
3.59886
3.57286
3.54661
3.52011
3.49286
3.47036
3.45536
3.44111
3.43235
3.4321
3.4351
3.44236
3.45411
3.46111
3.45786
3.45486
3.45211
3.44561
3.43585
3.42185
3.3976
3.3691
3.34735
3.33635
3.33435
3.3416
3.34885
3.35685
3.3696
3.3826
3.3876
3.38385
3.37185
3.3496
3.3211
3.2981
3.2746
3.24435
3.2136
3.19085
3.1801
3.17635
3.18485
3.19585
3.2031
3.21035
3.2311
3.2541
3.27585
3.2891
3.29035
3.28185
3.2721
3.2616
3.24735
3.2301
3.2181
3.2171
3.22335
3.2336
3.24435
3.2566
3.27285
3.2916
3.3036
3.30785
3.2981
3.2816
3.2656
3.25035
3.2321
3.2141
3.2031
3.20085
3.20335
3.20885
3.2176
3.22785
3.2386
3.2496
3.2611
3.2736
3.28585
3.2921
3.2901
3.28035
3.2631
3.2376
3.21035
3.1911
3.18085
3.1811
3.19135
3.2156
3.2446
3.2701
3.2896
3.2991
3.29585
3.28635
3.27185
3.2501
3.22335
3.19385
3.1626
3.1341
3.11285
3.10309
3.10759
3.13385
3.17735
3.23735
3.31085
3.39435
3.48336
3.57561
3.67061
3.76462
3.85837
3.96012
4.07362
4.19588
4.32063
4.45664
4.60339
4.7514
4.90215
5.05315
5.20341
5.35691
5.52167
5.68542
5.82943
5.92343
5.92968
5.83643
5.66142
5.42767
5.15691
4.87415
4.60989
4.37888
4.18688
4.03037
3.90387
3.80162
3.71661
3.64136
3.57086
3.49936
3.4221
3.33685
3.2476
3.16085
3.07009
2.97009
2.86459
2.76358
2.67508
2.59958
2.54383
2.50583
2.48358
2.48158
2.49883
2.52458
2.55583
2.58833
2.62408
2.66408
2.70908
2.76058
2.81859
2.88134
2.95384
3.03559
3.11685
3.1936
3.25885
3.3111
3.35535
3.38885
3.4066
3.40985
3.3996
3.37885
3.35035
3.3191
3.2851
3.25285
3.22235
3.19585
3.17735
3.1756
3.18835
3.2096
3.23735
3.2696
3.3011
3.3301
3.35085
3.3596
3.3591
3.34985
3.32935
3.30385
3.28085
3.2666
3.25935
3.2591
3.27035
3.2906
3.31285
3.3316
3.34785
3.3621
3.37035
3.37035
3.3596
3.34085
3.32135
3.3081
3.29435
3.2771
3.2606
3.25385
3.25535
3.26085
3.2721
3.28835
3.30835
3.3331
3.3561
3.37285
3.3821
3.38235
3.37685
3.37685
3.3781
3.3731
3.3631
3.3521
3.34235
3.3356
3.3341
3.3366
3.3376
3.34035
3.35085
3.3651
3.38385
3.4026
3.41535
3.41735
3.4136
3.40535
3.3896
3.37235
3.3591
3.3506
3.3496
3.3556
3.3661
3.37685
3.38985
3.40785
3.42285
3.42685
3.4236
3.41685
3.40685
3.39385
3.37685
3.3581
3.34085
3.33135
3.33185
3.3411
3.3541
3.37135
3.39285
3.4226
3.45561
3.48411
3.50336
3.51011
3.50936
3.50136
3.48411
3.46236
3.44036
3.4236
3.41835
3.42685
3.44911
3.47911
3.50811
3.53136
3.55286
3.57386
3.59561
3.61286
3.62561
3.63161
3.63161
3.63261
3.63036
3.62411
3.61536
3.60361
3.59061
3.58036
3.58236
3.60036
3.63111
3.66911
3.71536
3.76236
3.79887
3.81962
3.82862
3.83512
3.84687
3.85587
3.85487
3.85012
3.84537
3.84662
3.85937
3.88087
3.90262
3.92237
3.94362
3.97162
4.00212
4.03062
4.05437
4.07012
4.07987
4.08337
4.08012
4.07062
4.06162
4.06087
4.06312
4.07137
4.09137
4.11813
4.14663
4.17763
4.20938
4.23713
4.25513
4.26313
4.26013
4.25538
4.25213
4.24638
4.23463
4.22038
4.21313
4.21913
4.23288
4.25138
4.26913
4.27913
4.28538
4.28913
4.28488
4.26988
4.24838
4.22313
4.19463
4.16263
4.12538
4.08588
4.04937
4.01737
3.99312
3.97537
3.96487
3.95637
3.95287
3.95962
3.96937
3.96737
3.95137
3.93012
3.90512
3.86937
3.81637
3.75636
3.69961
3.65336
3.61886
3.59086
3.56886
3.55486
3.55011
3.55161
3.55386
3.55111
3.54136
3.52336
3.49486
3.45686
3.41785
3.37585
3.32985
3.28385
3.2446
3.21535
3.19785
3.19035
3.18285
3.17135
3.16285
3.1601
3.15735
3.15385
3.1511
3.1476
3.1406
3.1256
3.10334
3.07234
3.03659
3.00809
2.99109
2.98209
2.98359
2.98934
2.99859
3.01234
3.03134
3.04609
3.05059
3.04584
3.03459
3.01809
3.00084
2.98484
2.96984
2.95534
2.94409
2.93509
2.92759
2.92409
2.92409
2.93159
2.94709
2.96634
2.98259
2.99034
2.99184
2.98984
2.98759
2.98784
2.98559
2.97684
2.96584
2.95884
2.95584
2.95584
2.95809
2.95959
2.96784
2.98284
3.00234
3.01659
3.02284
3.02184
3.01584
3.00759
3.00059
2.99059
2.97334
2.94984
2.93059
2.91884
2.91434
2.91709
2.92434
2.94334
2.96859
2.99484
3.01209
3.02234
3.02459
3.02034
3.01309
3.00434
2.99309
2.97484
2.95359
2.93484
2.91784
2.90534
2.90584
2.91334
2.92809
2.95834
2.99684
3.02859
3.05534
3.07559
3.08859
3.09409
3.08884
3.07009
3.03684
2.99759
2.96259
2.94359
2.94184
2.95484
2.97684
3.00359
3.03334
3.05734
3.07484
3.08559
3.08959
3.08534
3.07759
3.06434
3.04084
3.01159
2.98984
2.97884
2.98234
2.99709
3.01759
3.04184
3.06784
3.09409
3.11385
3.1271
3.13285
3.12935
3.11635
3.09934
3.08084
3.05784
3.03659
3.02059
3.01459
3.02084
3.03984
3.06109
3.08409
3.11335
3.1491
3.1781
3.1891
3.1866
3.1786
3.16835
3.1541
3.13085
3.09934
3.06734
3.04559
3.03434
3.03284
3.04259
3.06034
3.08409
3.11385
3.15135
3.1856
3.20685
3.21685
3.2166
3.20685
3.1926
3.1721
3.14385
3.11285
3.08834
3.07409
3.07034
3.07434
3.08284
3.09784
3.1211
3.1481
3.17235
3.18885
3.19435
3.18335
3.1616
3.1401
3.11685
3.08834
3.06109
3.04059
3.03359
3.04009
3.05034
3.05634
3.06634
3.08684
3.1116
3.1286
3.1386
3.1446
3.1451
3.1386
3.12535
3.10134
3.06834
3.04059
3.02909
3.02884
3.03609
3.05609
3.08384
3.11635
3.14885
3.17685
3.19735
3.2071
3.20135
3.18435
3.1606
3.1371
3.11685
3.10259
3.09584
3.09334
3.09609
3.1081
3.12935
3.15085
3.17235
3.1941
3.2131
3.2216
3.2211
3.20935
3.19635
3.18885
3.18135
3.16435
3.1391
3.11535
3.09684
3.09359
3.11135
3.1426
3.1751
3.20635
3.23335
3.2571
3.27285
3.2756
3.26735
3.2496
3.22885
3.20535
3.17585
3.1426
3.1141
3.09984
3.09734
3.10509
3.11885
3.1346
3.1566
3.18135
3.2041
3.22185
3.2291
3.2206
3.19735
3.1701
3.1421
3.1161
3.09434
3.08209
3.08059
3.08584
3.09584
3.10609
3.11635
3.13085
3.14785
3.1631
3.1761
3.1836
3.18135
3.17335
3.16685
3.16285
3.1566
3.1471
3.1376
3.1341
3.1386
3.15335
3.17335
3.1911
3.20785
3.2231
3.2321
3.23335
3.2281
3.21585
3.1971
3.17435
3.14835
3.12085
3.10359
3.09734
3.09684
3.10384
3.1181
3.13585
3.1571
3.18535
3.2161
3.2426
3.2611
3.26685
3.2621
3.2521
3.23985
3.2246
3.20485
3.1831
3.1691
3.1616
3.16135
3.1651
3.1671
3.1696
3.1766
3.1896
3.2061
3.2156
3.21435
3.2081
3.20085
3.19185
3.17535
3.15385
3.13735
3.1271
3.12485
3.1296
3.13635
3.13985
3.1446
3.15285
3.16135
3.1686
3.17635
3.18335
3.18785
3.1906
3.1881
3.1791
3.16485
3.1511
3.1411
3.1366
3.13985
3.1521
3.1716
3.19585
3.2266
3.2576
3.28135
3.2936
3.2906
3.2786
3.2671
3.2616
3.25385
3.2416
3.2301
3.21935
3.20885
3.2001
3.19635
3.19885
3.20885
3.2271
3.2431
3.2486
3.24235
3.2356
3.2331
3.2361
3.23635
3.2301
3.21935
3.2106
3.20235
3.19885
3.2031
3.2111
3.2246
3.2396
3.25685
3.2701
3.28085
3.2846
3.27935
3.26635
3.2501
3.2356
3.21985
3.19935
3.18185
3.17335
3.17485
3.1826
3.19635
3.21285
3.2306
3.25285
3.27635
3.2946
3.30285
3.29835
3.28385
3.26735
3.24585
3.21885
3.1896
3.1676
3.15485
3.15285
3.16335
3.1796
3.19735
3.2191
3.23985
3.2556
3.2601
3.2566
3.2466
3.23335
3.22285
3.21085
3.19585
3.17985
3.16835
3.1666
3.1781
3.19785
3.22085
3.24285
3.26735
3.2971
3.3276
3.34935
3.35735
3.35285
3.34035
3.3211
3.29535
3.26135
3.2306
3.2106
3.20235
3.20635
3.21685
3.2286
3.2391
3.25435
3.2741
3.29585
3.31685
3.33085
3.3381
3.3391
3.3336
3.31385
3.28285
3.2521
3.23185
3.22535
3.22985
3.24535
3.2621
3.2766
3.29435
3.3106
3.3201
3.3256
3.32885
3.3281
3.32535
3.3201
3.31185
3.29935
3.2881
3.2851
3.29285
3.3011
3.3101
3.3151
3.3161
3.3221
3.3331
3.34535
3.3531
3.34935
3.3331
3.3146
3.29835
3.2856
3.2776
3.2791
3.2891
3.3051
3.3311
3.3676
3.4066
3.44911
3.49286
3.53111
3.55186
3.55861
3.55361
3.53911
3.52261
3.50511
3.48461
3.45936
3.43661
3.42085
3.41585
3.42235
3.43385
3.44711
3.46786
3.49636
3.52686
3.55186
3.57086
3.58786
3.60486
3.62161
3.63061
3.63161
3.62936
3.62986
3.64286
3.66411
3.68661
3.70236
3.71361
3.72061
3.72536
3.72186
3.70936
3.68961
3.66086
3.62336
3.58586
3.54811
3.51011
3.47461
3.45236
3.44086
3.43585
3.43911
3.44761
3.45836
3.47011
3.48161
3.48961
3.49136
3.48586
3.47386
3.45811
3.44111
3.4261
3.40685
3.3886
3.37485
3.3636
3.3556
3.35235
3.35435
3.3591
3.3676
3.37985
3.3871
3.38535
3.37735
3.35935
3.33835
3.3171
3.29235
3.26535
3.2401
3.22435
3.22185
3.2296
3.2461
3.26535
3.28335
3.3006
3.32385
3.3466
3.3651
3.3771
3.3746
3.3556
3.32785
3.3031
3.27635
3.2511
3.2366
3.2356
3.24085
3.25185
3.26285
3.27185
3.2856
3.30135
3.3131
3.31835
3.3121
3.2971
3.2806
3.26385
3.2506
3.23985
3.2346
3.2346
3.2391
3.2486
3.2601
3.27035
3.28685
3.30735
3.32185
3.32735
3.3281
3.32485
3.3126
3.30185
3.2986
3.2946
3.2831
3.27235
3.2666
3.2691
3.28235
3.3021
3.3206
3.33735
3.35035
3.35785
3.35335
3.33935
3.3206
3.2921
3.2586
3.22585
3.1916
3.15935
3.1351
3.12985
3.1436
3.17835
3.22785
3.28935
3.36735
3.46036
3.55886
3.65961
3.76261
3.86187
3.95887
4.06287
4.17588
4.29663
4.42213
4.55789
4.70689
4.8664
5.0304
5.19016
5.34916
5.50992
5.67542
5.83343
5.96068
6.02018
5.98368
5.84793
5.64042
5.38691
5.10866
4.8294
4.57289
4.35088
4.16538
4.01437
3.89562
3.80612
3.73936
3.68736
3.63836
3.58461
3.52736
3.46661
3.4016
3.33135
3.2556
3.1726
3.08634
2.99884
2.91559
2.84084
2.77708
2.72383
2.68008
2.65283
2.64333
2.64533
2.65533
2.67358
2.69883
2.73233
2.77483
2.82184
2.86709
2.91309
2.95984
3.01034
3.06534
3.1231
3.1781
3.22735
3.2711
3.3096
3.3431
3.3681
3.37835
3.3756
3.3661
3.34735
3.3186
3.2866
3.26135
3.2491
3.24535
3.2491
3.2606
3.27385
3.2901
3.31135
3.33685
3.35635
3.36835
3.3781
3.38635
3.38985
3.38585
3.37735
3.3646
3.3491
3.3331
3.31785
3.3096
3.3061
3.30835
3.31385
3.32285
3.33535
3.34935
3.36085
3.36935
3.3706
3.3681
3.3621
3.35335
3.33885
3.33285
3.34185
3.3591
3.38085
3.4036
3.42585
3.44686
3.46511
3.47886
3.48636
3.48436
3.47311
3.45736
3.44061
3.42885
3.4181
3.4011
3.38785
3.3886
3.3986
3.4126
3.4266
3.44336
3.46436
3.48911
3.51061
3.52236
3.52486
3.52136
3.51411
3.50761
3.49936
3.48636
3.47211
3.46261
3.45936
3.46836
3.48236
3.49786
3.51061
3.52311
3.53686
3.54661
3.55186
3.54836
3.53661
3.52311
3.51461
3.50861
3.50486
3.50286
3.50486
3.50961
3.51586
3.52611
3.53886
3.55261
3.56436
3.57461
3.58161
3.58086
3.57986
3.58036
3.58436
3.58736
3.58386
3.56836
3.54936
3.53361
3.52486
3.52861
3.54661
3.56486
3.58186
3.59911
3.61911
3.64311
3.66786
3.68186
3.67936
3.67336
3.67411
3.67386
3.66761
3.66236
3.66436
3.67386
3.68786
3.70636
3.73036
3.76212
3.79862
3.83712
3.86887
3.88987
3.89787
3.89337
3.88237
3.86962
3.85537
3.84337
3.84162
3.84762
3.86112
3.87987
3.90187
3.92212
3.94162
3.96387
3.98912
4.00837
4.01962
4.03112
4.04287
4.05712
4.06537
4.06562
4.05987
4.05612
4.06162
4.07487
4.09738
4.12263
4.14713
4.17363
4.20638
4.23538
4.25613
4.27363
4.28538
4.29063
4.28838
4.27788
4.25913
4.23613
4.21563
4.20263
4.19613
4.19788
4.21113
4.22688
4.24613
4.26588
4.28138
4.28738
4.28288
4.26638
4.24188
4.21538
4.18488
4.14938
4.11363
4.08437
4.06637
4.05512
4.04587
4.03212
4.01762
4.00412
3.99337
3.98412
3.97487
3.95837
3.92887
3.88937
3.84412
3.79487
3.74511
3.69536
3.65336
3.62111
3.59561
3.58086
3.57411
3.57161
3.56861
3.55861
3.53386
3.50111
3.46961
3.44211
3.4221
3.40935
3.39335
3.3676
3.3376
3.3111
3.28485
3.26385
3.25235
3.2441
3.23235
3.21935
3.2056
3.18935
3.1706
3.15235
3.13635
3.1241
3.11485
3.10284
3.08859
3.07434
3.05909
3.04534
3.03834
3.03884
3.03884
3.03909
3.04559
3.05734
3.06409
3.06134
3.05509
3.04759
3.03659
3.01934
2.99834
2.97659
2.95784
2.94834
2.94709
2.95259
2.95684
2.95784
2.96159
2.96709
2.96984
2.96909
2.96809
2.96684
2.96384
2.96334
2.96409
2.96134
2.95084
2.94059
2.93484
2.93984
2.95334
2.96784
2.97734
2.98034
2.99134
3.01059
3.02709
3.03709
3.03584
3.02609
3.01209
2.99759
2.98509
2.97209
2.95959
2.95259
2.95184
2.95584
2.96309
2.97384
2.98984
3.00834
3.02434
3.03484
3.04084
3.04284
3.03859
3.03234
3.02459
3.00884
2.98959
2.97784
2.97559
2.98409
3.00534
3.02884
3.04784
3.06409
3.07609
3.07909
3.07534
3.07059
3.06359
3.05159
3.03809
3.01984
2.99684
2.97684
2.96534
2.96184
2.96709
2.98284
3.00484
3.03009
3.06009
3.09184
3.1201
3.1376
3.1436
3.14185
3.1321
3.11635
3.09584
3.06734
3.03384
3.00159
2.97259
2.94984
2.93809
2.93934
2.94959
2.97209
3.00209
3.03359
3.06084
3.08184
3.08959
3.08709
3.07659
3.05784
3.02909
3.00159
2.98159
2.97234
2.97609
2.98709
3.00334
3.02284
3.03884
3.04934
3.04909
3.04784
3.04909
3.04984
3.05109
3.05034
3.04459
3.02584
3.00034
2.97709
2.96134
2.95709
2.96459
2.98334
3.01434
3.05209
3.08909
3.1166
3.13485
3.1436
3.1401
3.12785
3.11085
3.09409
3.07609
3.05959
3.04859
3.04309
3.04409
3.04909
3.05484
3.06509
3.07884
3.09134
3.10084
3.1091
3.1086
3.10084
3.08984
3.07409
3.05259
3.02759
3.00584
2.99184
2.98759
2.99284
3.00359
3.01984
3.04159
3.06734
3.08884
3.09959
3.09884
3.09109
3.07784
3.06659
3.05484
3.03934
3.02684
3.02209
3.02634
3.03459
3.04609
3.05584
3.06634
3.08509
3.11035
3.1331
3.1466
3.14985
3.1411
3.12735
3.1141
3.09959
3.08184
3.06284
3.04884
3.03859
3.03534
3.03834
3.04534
3.05359
3.06884
3.09109
3.11235
3.12335
3.1261
3.1196
3.10634
3.09134
3.07409
3.05384
3.03159
3.01434
3.00459
3.00309
3.01284
3.02909
3.05109
3.07809
3.11235
3.14085
3.15235
3.1456
3.1286
3.10985
3.09134
3.07434
3.05784
3.05034
3.05009
3.05209
3.05484
3.06559
3.08309
3.10509
3.1271
3.1466
3.16235
3.1681
3.16185
3.1471
3.1246
3.09809
3.06884
3.03959
3.01534
3.00084
2.99284
2.99634
3.01184
3.03409
3.06059
3.08634
3.10835
3.1191
3.1201
3.1146
3.10734
3.10434
3.10084
3.09359
3.08484
3.07884
3.07959
3.08334
3.08234
3.08134
3.08459
3.08984
3.09784
3.10634
3.11285
3.11535
3.1166
3.11635
3.11585
3.11335
3.10334
3.08759
3.07134
3.06309
3.06309
3.07209
3.09059
3.1151
3.13835
3.1601
3.17285
3.16985
3.15985
3.1491
3.1346
3.1186
3.10484
3.09084
3.07509
3.06134
3.05734
3.06259
3.07659
3.09734
3.11635
3.13235
3.1541
3.17885
3.19485
3.20485
3.20935
3.20685
3.2016
3.1906
3.16735
3.1406
3.12185
3.10985
3.10484
3.10609
3.1151
3.12385
3.1301
3.14635
3.1686
3.1861
3.19235
3.1906
3.18435
3.1746
3.1586
3.1381
3.11435
3.09734
3.09384
3.09734
3.10284
3.11835
3.1436
3.17785
3.21135
3.2401
3.2591
3.26585
3.25535
3.23285
3.20485
3.1731
3.1416
3.1176
3.10434
3.10234
3.1116
3.13135
3.1541
3.1766
3.1941
3.21185
3.2291
3.2426
3.25185
3.2526
3.24785
3.2406
3.22985
3.2141
3.19585
3.1856
3.17535
3.1621
3.1491
3.1376
3.13485
3.1516
3.18435
3.21585
3.2381
3.24635
3.24285
3.2316
3.2186
3.20435
3.1836
3.1641
3.15285
3.1516
3.15585
3.16485
3.17635
3.18635
3.1971
3.2131
3.2261
3.23235
3.2281
3.21735
3.2031
3.1841
3.1601
3.13735
3.1251
3.1241
3.13185
3.14985
3.17935
3.21435
3.24585
3.27235
3.29235
3.30135
3.30035
3.28885
3.27335
3.26235
3.25335
3.2426
3.22385
3.20335
3.1941
3.19235
3.1951
3.20285
3.2136
3.22385
3.2346
3.2456
3.25635
3.26585
3.27235
3.27285
3.2716
3.2676
3.2591
3.2461
3.2331
3.2246
3.2216
3.2236
3.2276
3.2366
3.2506
3.2691
3.2926
3.30985
3.31435
3.30635
3.29035
3.27235
3.2501
3.2196
3.18485
3.15585
3.1381
3.12935
3.12885
3.13335
3.14235
3.1646
3.1991
3.2386
3.27435
3.30335
3.31935
3.31785
3.30585
3.29285
3.28335
3.27135
3.2651
3.26885
3.27935
3.29035
3.2956
3.3001
3.31335
3.3326
3.3481
3.35435
3.35285
3.34535
3.33185
3.3166
3.2976
3.26985
3.23785
3.21235
3.19635
3.1951
3.20835
3.22635
3.25185
3.28735
3.3276
3.3636
3.39035
3.40785
3.41785
3.4241
3.42785
3.42961
3.4311
3.4356
3.44986
3.46936
3.49186
3.51411
3.52761
3.53486
3.54411
3.55661
3.56261
3.55936
3.55036
3.53361
3.50936
3.48461
3.46611
3.45361
3.44861
3.45861
3.48211
3.51336
3.54686
3.58036
3.60936
3.63611
3.66661
3.69136
3.70486
3.71011
3.70836
3.69911
3.68161
3.65711
3.62236
3.58611
3.55011
3.51861
3.49611
3.48661
3.48686
3.49211
3.50061
3.51386
3.52536
3.52911
3.52386
3.51011
3.48661
3.45561
3.4176
3.38135
3.35385
3.3366
3.3331
3.3441
3.36085
3.37935
3.3986
3.41785
3.4321
3.43886
3.43986
3.43285
3.4161
3.3946
3.36685
3.3376
3.3101
3.2886
3.27185
3.2586
3.25035
3.2506
3.25385
3.26435
3.2856
3.3046
3.3216
3.3321
3.32785
3.30885
3.28135
3.25285
3.2281
3.20735
3.1921
3.18285
3.18135
3.18835
3.20285
3.22135
3.2466
3.2841
3.31885
3.3406
3.3421
3.3291
3.31085
3.29285
3.2721
3.2471
3.22385
3.20985
3.21135
3.2236
3.24385
3.26585
3.2861
3.30185
3.3151
3.3236
3.32435
3.3191
3.30785
3.2946
3.28735
3.28185
3.2731
3.26385
3.25935
3.2591
3.2646
3.2761
3.2886
3.3031
3.31935
3.3331
3.33985
3.3371
3.3301
3.3196
3.30035
3.27485
3.2426
3.20835
3.18235
3.17035
3.1666
3.1626
3.1641
3.17135
3.18285
3.20235
3.23135
3.25685
3.28135
3.3141
3.3481
3.38935
3.44286
3.50361
3.56611
3.63411
3.71886
3.82262
3.95062
4.09438
4.24538
4.40288
4.57314
4.74915
4.91465
5.06691
5.20891
5.34066
5.46767
5.59117
5.70792
5.80593
5.86043
5.83743
5.72517
5.54017
5.30716
5.05065
4.80115
4.57439
4.37513
4.19663
4.03487
3.88737
3.75261
3.63286
3.52636
3.42585
3.3301
3.24385
3.1646
3.09384
3.03409
2.97734
2.91409
2.84309
2.77083
2.69883
2.63108
2.57083
2.51833
2.47208
2.43782
2.42107
2.41957
2.43657
2.47758
2.53958
2.61558
2.70683
2.80709
2.90609
2.99784
3.08034
3.1586
3.2241
3.27435
3.30585
3.32185
3.3251
3.31785
3.3016
3.2781
3.25835
3.24585
3.24185
3.24435
3.24985
3.25785
3.2666
3.2806
3.29385
3.3066
3.3166
3.3196
3.3151
3.30885
3.30085
3.2871
3.2706
3.2581
3.2516
3.2536
3.26785
3.2896
3.31085
3.3301
3.35335
3.37385
3.38635
3.38585
3.37385
3.35685
3.3371
3.3166
3.2946
3.28035
3.27585
3.2761
3.2816
3.2951
3.3111
3.3296
3.3531
3.3766
3.3911
3.39385
3.3841
3.36385
3.3431
3.3286
3.3156
3.3026
3.28835
3.28235
3.2881
3.3041
3.3261
3.35435
3.38685
3.4181
3.44286
3.45961
3.46536
3.46611
3.46286
3.45661
3.44611
3.4306
3.40835
3.38635
3.3721
3.3681
3.3726
3.3866
3.40485
3.42535
3.44736
3.46961
3.48761
3.49686
3.49661
3.49111
3.48511
3.47736
3.46711
3.45461
3.44386
3.4271
3.40585
3.3956
3.40285
3.42435
3.45486
3.48636
3.50636
3.51636
3.52036
3.51811
3.51286
3.50486
3.50261
3.50736
3.50886
3.51161
3.51936
3.52636
3.53386
3.54286
3.55261
3.56661
3.58461
3.60186
3.61386
3.62136
3.62586
3.62311
3.61211
3.59636
3.58211
3.57311
3.57486
3.58486
3.60511
3.62936
3.65586
3.67986
3.69961
3.71936
3.73636
3.74961
3.75461
3.75111
3.74536
3.74511
3.74936
3.75336
3.74986
3.74561
3.74886
3.76111
3.78087
3.80537
3.83212
3.85812
3.88612
3.91262
3.93737
3.96112
3.97737
3.98462
3.98362
3.97962
3.97487
3.97287
3.97837
3.98937
4.00512
4.02587
4.05237
4.07937
4.10563
4.13363
4.15663
4.17338
4.18388
4.18438
4.17788
4.16988
4.15863
4.14863
4.14738
4.15688
4.16913
4.17788
4.19063
4.20363
4.22113
4.24588
4.27838
4.31013
4.33363
4.34113
4.33463
4.31713
4.29363
4.26613
4.23538
4.20413
4.17688
4.15513
4.14038
4.13063
4.12388
4.12013
4.12513
4.14063
4.15138
4.14813
4.12963
4.09963
4.06162
4.02012
3.97287
3.92462
3.87937
3.84062
3.81237
3.78937
3.77087
3.75561
3.74486
3.74336
3.74736
3.74986
3.74436
3.72536
3.69336
3.65911
3.62286
3.57786
3.52486
3.47036
3.41985
3.3786
3.3496
3.3256
3.3111
3.3061
3.3101
3.3171
3.3161
3.30185
3.27885
3.25085
3.2246
3.1961
3.1631
3.1296
3.10034
3.07984
3.06584
3.05809
3.05709
3.06184
3.07259
3.08884
3.10159
3.1081
3.10835
3.10559
3.09584
3.08159
3.05934
3.02959
3.00309
2.98509
2.97734
2.97284
2.97484
2.98084
2.98609
2.98834
2.99534
3.00209
3.00434
3.00159
2.99134
2.97809
2.96809
2.96259
2.95859
2.95459
2.95209
2.94934
2.94959
2.95459
2.95459
2.95134
2.95459
2.96484
2.97884
2.98759
2.99384
2.99259
2.97834
2.95859
2.93884
2.92234
2.91059
2.90409
2.90534
2.90959
2.91659
2.93084
2.94884
2.96784
2.98859
3.00409
3.01584
3.02484
3.02984
3.02584
3.01734
3.00584
2.98984
2.97609
2.96159
2.95034
2.94159
2.93809
2.94384
2.96234
2.98984
3.02209
3.04734
3.06309
3.06884
3.06784
3.06059
3.04284
3.01234
2.97459
2.94584
2.93159
2.92784
2.92959
2.93734
2.94834
2.96559
2.98859
3.01484
3.03909
3.05934
3.07259
3.07284
3.06609
3.06009
3.05009
3.03109
3.01084
2.99209
2.97634
2.97384
2.97984
2.99134
3.01009
3.03459
3.05984
3.07734
3.08659
3.08809
3.08684
3.08509
3.07784
3.05859
3.03084
3.00609
2.99034
2.98459
2.99134
3.00384
3.01134
3.01959
3.03834
3.06459
3.09159
3.1131
3.12385
3.12235
3.11135
3.09909
3.08484
3.06609
3.05059
3.04034
3.03709
3.04209
3.04959
3.06184
3.07859
3.09559
3.1086
3.1231
3.13185
3.12835
3.11285
3.09134
3.06884
3.04384
3.01884
3.00409
3.00409
3.01434
3.03134
3.05059
3.07084
3.08909
3.10935
3.12185
3.12785
3.13435
3.13535
3.1311
3.12535
3.11785
3.10835
3.09884
3.09409
3.09234
3.09459
3.10434
3.1191
3.13285
3.14585
3.1571
3.16385
3.1671
3.1686
3.1661
3.1576
3.14535
3.13135
3.11735
3.10559
3.10334
3.1086
3.1101
3.1101
3.1151
3.12285
3.13185
3.1396
3.1426
3.1436
3.1421
3.1346
3.13035
3.12835
3.12235
3.10935
3.09284
3.08259
3.08434
3.09259
3.1111
3.13335
3.1556
3.18035
3.2041
3.22085
3.2261
3.21835
3.20285
3.1866
3.17185
3.1516
3.12385
3.09609
3.07609
3.06209
3.05609
3.05409
3.05134
3.05259
3.07284
3.1121
3.15235
3.1876
3.2146
3.22535
3.2206
3.20235
3.17635
3.1526
3.13235
3.1171
3.10584
3.09784
3.09334
3.09334
3.10384
3.1276
3.1586
3.18735
3.2061
3.21535
3.21235
3.19685
3.17435
3.14985
3.12585
3.10935
3.10384
3.10434
3.1106
3.12085
3.1356
3.15585
3.1791
3.19985
3.2166
3.22685
3.2271
3.2181
3.2016
3.1836
3.15835
3.1261
3.10184
3.09184
3.09259
3.10184
3.1141
3.1236
3.1351
3.1546
3.1786
3.1996
3.2141
3.22185
3.22385
3.21835
3.20435
3.18535
3.1616
3.14185
3.12635
3.11785
3.1161
3.11835
3.1286
3.1466
3.1691
3.1886
3.2061
3.2221
3.23535
3.2396
3.23885
3.23485
3.2226
3.20235
3.1826
3.1681
3.1581
3.15435
3.15185
3.14885
3.14585
3.14835
3.15635
3.16635
3.1771
3.1831
3.18435
3.18435
3.1836
3.18185
3.17785
3.17285
3.1716
3.1741
3.18385
3.19585
3.2101
3.2296
3.2511
3.2641
3.26535
3.2581
3.2456
3.23035
3.2131
3.19285
3.17135
3.14835
3.13085
3.1226
3.12085
3.1236
3.1266
3.13585
3.15485
3.18185
3.21035
3.23435
3.2506
3.2541
3.24485
3.22685
3.2061
3.18285
3.1606
3.14835
3.15035
3.16385
3.18835
3.21185
3.2306
3.2456
3.2606
3.2721
3.27585
3.2716
3.26135
3.25235
3.24285
3.23235
3.2171
3.1991
3.1826
3.16735
3.15885
3.1601
3.16735
3.1841
3.20635
3.2301
3.2516
3.26485
3.2661
3.2606
3.25635
3.2476
3.2321
3.2136
3.1976
3.1901
3.18835
3.1916
3.19985
3.20835
3.22335
3.2436
3.2591
3.2656
3.26485
3.2616
3.2446
3.2221
3.1966
3.1706
3.13785
3.11135
3.10059
3.09734
3.1096
3.13485
3.16535
3.19285
3.2191
3.24285
3.2621
3.2716
3.2716
3.2621
3.2431
3.22285
3.20385
3.18785
3.17985
3.17585
3.17785
3.1881
3.2001
3.20835
3.2146
3.2271
3.2416
3.2526
3.2556
3.25235
3.2476
3.2401
3.22685
3.2046
3.18385
3.17135
3.1676
3.1726
3.1876
3.20835
3.2316
3.2621
3.29435
3.31685
3.32285
3.32085
3.31435
3.30635
3.3021
3.3001
3.2916
3.27885
3.27085
3.2746
3.2876
3.3086
3.33535
3.36685
3.4036
3.43786
3.45986
3.47261
3.47886
3.47836
3.47461
3.46811
3.45736
3.43836
3.4186
3.4041
3.39685
3.39335
3.3971
3.40835
3.4281
3.45586
3.49311
3.53236
3.56411
3.58811
3.60436
3.61661
3.62461
3.61986
3.60061
3.57711
3.55161
3.53111
3.52411
3.53336
3.54686
3.55936
3.57286
3.58061
3.57661
3.56286
3.54486
3.52561
3.50561
3.48961
3.47561
3.45811
3.43811
3.4211
3.4076
3.3976
3.39535
3.39935
3.4076
3.41735
3.42535
3.4326
3.4341
3.4236
3.4016
3.3781
3.3516
3.3216
3.29285
3.26985
3.25485
3.25085
3.2606
3.27685
3.2881
3.2986
3.3171
3.3316
3.33435
3.33035
3.31835
3.30235
3.28485
3.2666
3.2431
3.21685
3.1991
3.1901
3.1876
3.19085
3.1956
3.1956
3.1941
3.20335
3.22685
3.2591
3.2856
3.30135
3.30435
3.29735
3.2806
3.25335
3.2201
3.1871
3.16185
3.14635
3.14735
3.1566
3.1706
3.19085
3.2181
3.24585
3.2651
3.2751
3.2761
3.2696
3.25885
3.23985
3.2126
3.18185
3.15535
3.14135
3.14085
3.1546
3.1796
3.2151
3.25885
3.2996
3.33085
3.3486
3.35235
3.34085
3.3166
3.29185
3.2706
3.24685
3.22235
3.20285
3.1916
3.1851
3.18335
3.1806
3.17785
3.17935
3.18585
3.1831
3.16935
3.15435
3.13985
3.1326
3.1361
3.1411
3.1431
3.14935
3.1651
3.2016
3.25685
3.3266
3.4066
3.49436
3.59186
3.69711
3.80087
3.90112
4.00487
4.11338
4.22813
4.34888
4.47064
4.59089
4.71764
4.85315
4.99215
5.13341
5.27991
5.43642
5.60092
5.75643
5.86843
5.89568
5.82218
5.65917
5.42992
5.16241
4.88365
4.61939
4.37688
4.16388
3.98237
3.83412
3.71461
3.61386
3.52636
3.44961
3.38535
3.3251
3.26035
3.1881
3.10734
3.01534
2.91734
2.81609
2.71308
2.61508
2.53933
2.48158
2.43907
2.41307
2.40732
2.42107
2.45233
2.49958
2.56183
2.62958
2.69783
2.76558
2.83109
2.89534
2.95859
3.00859
3.04559
3.07984
3.11485
3.14835
3.17985
3.2091
3.23085
3.2526
3.2801
3.3061
3.32585
3.34035
3.34385
3.33835
3.3261
3.3056
3.2781
3.24785
3.2291
3.22235
3.22135
3.22935
3.2426
3.26835
3.3011
3.33685
3.36685
3.38285
3.38585
3.38435
3.3806
3.3716
3.35835
3.33735
3.31435
3.2966
3.28585
3.2841
3.29135
3.30135
3.31385
3.3311
3.35435
3.37435
3.3901
3.3981
3.3951
3.37685
3.35385
3.33135
3.3111
3.2956
3.28785
3.28435
3.2846
3.29335
3.3066
3.32135
3.3411
3.36935
3.3946
3.4101
3.4151
3.41335
3.40785
3.4026
3.3961
3.38435
3.3676
3.35385
3.34285
3.3366
3.33035
3.3316
3.34535
3.36835
3.3951
3.4211
3.44236
3.45586
3.46086
3.46211
3.45911
3.45086
3.43936
3.4311
3.4246
3.41685
3.41585
3.42335
3.43611
3.45186
3.47261
3.49711
3.51686
3.52911
3.53336
3.52886
3.52511
3.52036
3.50686
3.47886
3.44686
3.43185
3.42885
3.43661
3.45561
3.47911
3.50511
3.53261
3.55586
3.56836
3.56586
3.55436
3.54011
3.52861
3.52436
3.52611
3.52911
3.53561
3.54411
3.55486
3.56886
3.58511
3.60111
3.61761
3.64086
3.66861
3.69211
3.70736
3.71211
3.70786
3.70361
3.69761
3.68961
3.67836
3.66836
3.66261
3.66411
3.67536
3.69286
3.71411
3.73486
3.76487
3.79737
3.82712
3.85162
3.86737
3.87887
3.89112
3.89562
3.89237
3.88562
3.88212
3.88662
3.90212
3.92587
3.95087
3.97937
4.01212
4.04512
4.07412
4.10713
4.11213
4.11613
4.11863
4.11938
4.11738
4.11163
4.11063
4.12038
4.13913
4.16338
4.18813
4.21463
4.24288
4.27388
4.30113
4.32338
4.33488
4.33063
4.30888
4.28288
4.25613
4.22663
4.19888
4.17888
4.17138
4.17488
4.18913
4.21063
4.23688
4.26688
4.29913
4.32013
4.32563
4.31588
4.29213
4.26263
4.22563
4.17613
4.12038
4.06537
4.01987
3.98762
3.97187
3.96437
3.95287
3.93487
3.91562
3.89887
3.87862
3.85412
3.82412
3.78687
3.75011
3.71311
3.67136
3.62486
3.58136
3.54761
3.52536
3.51236
3.50436
3.49436
3.48286
3.47261
3.45936
3.43836
3.41185
3.3821
3.34835
3.3116
3.2716
3.23135
3.18685
3.1456
3.1136
3.09284
3.08209
3.07809
3.07959
3.09184
3.11385
3.12835
3.13435
3.13735
3.1371
3.1306
3.1201
3.10209
3.07284
3.03534
3.00284
2.98159
2.96984
2.96684
2.96984
2.97359
2.97859
2.99059
3.00459
3.01484
3.02009
3.01234
2.99559
2.97809
2.95859
2.93284
2.90509
2.88159
2.86384
2.86284
2.87209
2.88709
2.90384
2.92134
2.93959
2.95434
2.96434
2.96909
2.96834
2.96159
2.94809
2.92859
2.90534
2.88384
2.87184
2.86559
2.86834
2.88234
2.90384
2.92634
2.94684
2.96659
2.98009
2.98734
2.98434
2.97059
2.95034
2.92634
2.90184
2.88109
2.86459
2.85434
2.85434
2.86259
2.87809
2.89484
2.91109
2.93359
2.96159
2.98159
2.99634
3.01209
3.01709
3.01184
3.00384
2.98984
2.96859
2.94409
2.92409
2.91534
2.91909
2.93584
2.95759
2.97834
2.99859
3.01634
3.03084
3.04109
3.04484
3.03859
3.02884
3.01559
3.00034
2.98609
2.98159
2.98609
2.99309
3.00409
3.01909
3.03034
3.04209
3.05259
3.05909
3.06209
3.06584
3.06859
3.06459
3.05284
3.03834
3.02284
3.00434
2.99034
2.98334
2.98134
2.98609
2.99684
3.00809
3.02659
3.05309
3.07809
3.09784
3.11235
3.12035
3.1191
3.11085
3.09684
3.08134
3.06584
3.05434
3.04509
3.03584
3.02984
3.02409
3.02009
3.02259
3.03559
3.05609
3.07134
3.07984
3.08459
3.08884
3.09534
3.09984
3.09959
3.08884
3.07234
3.05884
3.05834
3.07109
3.09009
3.10709
3.11685
3.1221
3.12535
3.12585
3.1256
3.1261
3.1251
3.12385
3.1186
3.10559
3.08959
3.07734
3.06759
3.06184
3.06184
3.06484
3.06859
3.07559
3.08884
3.10409
3.12385
3.1481
3.1691
3.1796
3.17785
3.16435
3.14335
3.1181
3.09259
3.07184
3.05684
3.05434
3.06459
3.08059
3.10284
3.1306
3.1566
3.1786
3.1951
3.20185
3.1981
3.18485
3.1616
3.1301
3.09609
3.07234
3.05884
3.05284
3.05434
3.06034
3.06159
3.06309
3.07059
3.07784
3.08284
3.08034
3.07209
3.06509
3.06034
3.05909
3.05909
3.06334
3.06984
3.07734
3.08534
3.09884
3.11335
3.1251
3.1346
3.14685
3.1566
3.1581
3.15335
3.1421
3.13185
3.1221
3.1116
3.09634
3.08184
3.07009
3.06034
3.05559
3.05909
3.06609
3.07409
3.08484
3.09784
3.10759
3.10784
3.10634
3.10534
3.10759
3.1126
3.11385
3.10059
3.07934
3.05584
3.03809
3.03359
3.03709
3.03809
3.04134
3.05234
3.07109
3.09109
3.10759
3.11535
3.11535
3.1131
3.1121
3.11135
3.10609
3.10034
3.10009
3.10734
3.11885
3.12935
3.1356
3.1391
3.14585
3.1571
3.16885
3.1786
3.17985
3.1731
3.1651
3.1516
3.1296
3.10359
3.08659
3.07959
3.08209
3.09484
3.1136
3.1566
3.18035
3.2021
3.2151
3.21385
3.2071
3.20135
3.1936
3.17935
3.1591
3.1401
3.12935
3.1221
3.1231
3.13785
3.15785
3.17485
3.1901
3.20335
3.20985
3.2091
3.20585
3.20335
3.20035
3.19735
3.1896
3.17935
3.16635
3.15385
3.1466
3.1456
3.15135
3.16285
3.17885
3.2001
3.22585
3.2461
3.2571
3.2596
3.25485
3.24685
3.2396
3.2371
3.23585
3.2366
3.24085
3.2506
3.2666
3.29185
3.32335
3.35535
3.3871
3.41835
3.44186
3.45611
3.46011
3.45286
3.43986
3.4256
3.4141
3.39835
3.38235
3.3711
3.36585
3.3666
3.3721
3.38185
3.3991
3.42785
3.46486
3.50686
3.54611
3.58161
3.60936
3.62811
3.64086
3.64611
3.63936
3.62636
3.61011
3.59436
3.58886
3.59361
3.60186
3.61061
3.61736
3.61561
3.60561
3.59061
3.56611
3.53336
3.49436
3.44936
3.4041
3.36535
3.33535
3.31185
3.29635
3.29435
3.3046
3.3171
3.3276
3.33885
3.35585
3.36835
3.37285
3.36985
3.35485
3.33735
3.3226
3.3066
3.28835
3.2741
3.2696
3.27685
3.2856
3.2891
3.2876
3.28985
3.2966
3.30285
3.3006
3.28635
3.2656
3.24285
3.2231
3.19985
3.1686
3.1386
3.1201
3.1116
3.10835
3.11185
3.12285
3.1411
3.16135
3.18385
3.20635
3.2226
3.22935
3.22485
3.2136
3.1981
3.1741
3.1446
3.1191
3.10159
3.09584
3.09734
3.10609
3.11885
3.13785
3.1656
3.19635
3.21985
3.23535
3.23535
3.2226
3.2046
3.1891
3.1741
3.16035
3.1476
3.1386
3.13985
3.1521
3.1736
3.19285
3.2081
3.22335
3.24135
3.25185
3.2596
3.2581
3.2441
3.22735
3.2076
3.1881
3.1761
3.1686
3.1576
3.1481
3.1441
3.15085
3.1656
3.1876
3.21285
3.2321
3.23935
3.2371
3.2291
3.21685
3.2001
3.17735
3.14935
3.11785
3.08809
3.06909
3.06434
3.07559
3.10409
3.14635
3.20035
3.2716
3.3606
3.45686
3.54711
3.63211
3.71911
3.81062
3.90537
4.00612
4.11213
4.23113
4.36538
4.51139
4.65964
4.8054
4.9519
5.10166
5.25741
5.41767
5.56917
5.69767
5.76743
5.74443
5.62617
5.43567
5.19416
4.9204
4.64439
4.38713
4.16138
3.97662
3.83187
3.72011
3.63711
3.58161
3.54611
3.51886
3.49036
3.45336
3.40235
3.3466
3.28335
3.2106
3.1376
3.07059
3.00259
2.93534
2.86809
2.80234
2.73958
2.68608
2.64433
2.60808
2.57333
2.54408
2.52483
2.51733
2.51983
2.53233
2.55133
2.57733
2.61758
2.67108
2.73583
2.81334
2.89684
2.97734
3.05384
3.12685
3.1881
3.22985
3.25435
3.26435
3.2581
3.2456
3.2326
3.2221
3.21485
3.21185
3.21535
3.22685
3.24835
3.27285
3.29635
3.31485
3.3301
3.3396
3.3371
3.32085
3.3031
3.28835
3.2776
3.26785
3.25685
3.24685
3.2421
3.24485
3.2561
3.27635
3.2941
3.30985
3.3271
3.34385
3.35485
3.35585
3.34635
3.3321
3.31535
3.2946
3.26935
3.2466
3.2346
3.2341
3.24735
3.27085
3.3021
3.32785
3.3441
3.35635
3.3686
3.3801
3.38985
3.3946
3.38735
3.37685
3.3656
3.3516
3.3341
3.3166
3.30635
3.30135
3.30785
3.32335
3.3476
3.37635
3.4076
3.43861
3.46111
3.47086
3.46886
3.45636
3.44186
3.4301
3.4176
3.4001
3.38435
3.3786
3.37985
3.3881
3.3996
3.4101
3.41835
3.42685
3.4351
3.44161
3.44986
3.45961
3.46586
3.46936
3.47036
3.46186
3.44286
3.4231
3.4096
3.40585
3.4131
3.43185
3.45761
3.48586
3.51886
3.55711
3.59261
3.61186
3.60986
3.59161
3.56911
3.54561
3.52511
3.50686
3.49586
3.49461
3.50461
3.52411
3.54661
3.57386
3.60536
3.63911
3.67061
3.69436
3.70761
3.70886
3.69861
3.68311
3.66011
3.63036
3.60211
3.58536
3.58711
3.60761
3.64186
3.68161
3.71611
3.74836
3.78537
3.82237
3.85312
3.87812
3.89362
3.89737
3.89637
3.89362
3.88562
3.87012
3.85587
3.84887
3.85037
3.86312
3.88487
3.91112
3.94112
3.97787
4.01312
4.04162
4.05812
4.06637
4.06662
4.06537
4.06162
4.05212
4.04362
4.04462
4.05187
4.06487
4.08488
4.10663
4.13038
4.15688
4.18563
4.21288
4.23113
4.24038
4.23963
4.23038
4.22063
4.21213
4.20613
4.20038
4.19463
4.18788
4.18313
4.18088
4.18113
4.19088
4.21088
4.23613
4.25363
4.25913
4.25563
4.24063
4.21413
4.18188
4.15113
4.12513
4.09513
4.05737
4.01712
3.98262
3.95712
3.93887
3.93162
3.92887
3.92587
3.91662
3.90012
3.87262
3.83662
3.79762
3.76037
3.72386
3.68561
3.64636
3.61136
3.58236
3.56086
3.54611
3.53511
3.52611
3.52086
3.51761
3.50911
3.49236
3.46911
3.43661
3.3971
3.3566
3.3196
3.2851
3.25585
3.2321
3.21335
3.2016
3.19485
3.1906
3.19035
3.1931
3.19785
3.2001
3.19385
3.1791
3.1596
3.14235
3.12235
3.09909
3.07159
3.04509
3.02659
3.02309
3.03009
3.04034
3.04559
3.04734
3.05259
3.06159
3.07034
3.07734
3.07609
3.06534
3.05034
3.03559
3.02034
3.00584
2.99759
2.99334
2.99309
2.99634
3.00909
3.03309
3.05859
3.08234
3.10034
3.10985
3.10885
3.09534
3.07434
3.05359
3.03484
3.01634
2.99859
2.99159
2.99384
2.99659
2.99784
3.00159
3.00759
3.01909
3.03559
3.05459
3.07284
3.08484
3.08534
3.07659
3.06434
3.04909
3.02984
3.01259
3.00209
3.00059
3.00559
3.01434
3.02609
3.03784
3.04709
3.05559
3.06759
3.08609
3.10259
3.1081
3.10259
3.08909
3.06334
3.02859
2.99709
2.97809
2.97209
2.97709
2.99084
3.00234
3.01134
3.02609
3.04709
3.06859
3.08984
3.10484
3.10634
3.10509
3.10709
3.10509
3.09309
3.07834
3.07059
3.07159
3.08059
3.09434
3.1086
3.12335
3.1391
3.15535
3.1631
3.16235
3.15585
3.14635
3.13735
3.1261
3.10784
3.07984
3.05609
3.04134
3.03659
3.04559
3.05909
3.07734
3.10184
3.13185
3.1631
3.1871
3.2001
3.20085
3.1931
3.1821
3.1706
3.1526
3.12885
3.11035
3.09884
3.09284
3.09059
3.09309
3.10059
3.11635
3.1391
3.1676
3.1936
3.21235
3.2276
3.23335
3.22835
3.2126
3.1921
3.16835
3.14485
3.1231
3.10759
3.10584
3.1186
3.1391
3.16235
3.18685
3.20635
3.2156
3.21135
3.19485
3.1726
3.1556
3.13735
3.1136
3.08959
3.07534
3.07159
3.07634
3.08659
3.10234
3.1216
3.14485
3.16935
3.19135
3.21035
3.22235
3.2221
3.21235
3.20035
3.1821
3.1546
3.1266
3.10409
3.09134
3.08884
3.09609
3.1086
3.1261
3.1501
3.1771
3.1991
3.2136
3.22435
3.22735
3.2196
3.2016
3.1736
3.13985
3.11085
3.09209
3.07909
3.07284
3.07784
3.09284
3.11335
3.1396
3.17235
3.2006
3.2161
3.21435
3.2001
3.1766
3.1521
3.1306
3.11235
3.10084
3.09584
3.09484
3.09334
3.09334
3.09309
3.09359
3.10784
3.1336
3.1516
3.15885
3.16135
3.15785
3.1551
3.15535
3.15485
3.1476
3.1361
3.12385
3.1156
3.11435
3.11785
3.1196
3.1256
3.14035
3.1601
3.1796
3.1981
3.21185
3.21135
3.20135
3.18835
3.1731
3.1581
3.14685
3.1391
3.13685
3.14335
3.15485
3.16735
3.1816
3.1991
3.21935
3.2311
3.22735
3.2126
3.1996
3.1926
3.19135
3.18735
3.17635
3.16335
3.1501
3.1386
3.13335
3.1396
3.15385
3.17435
3.1996
3.22235
3.23435
3.2386
3.23485
3.21985
3.1986
3.17085
3.1406
3.1126
3.09309
3.08634
3.09084
3.10684
3.1266
3.14985
3.17385
3.19635
3.20685
3.20535
3.20135
3.1981
3.18635
3.16835
3.1496
3.1326
3.12185
3.1236
3.13585
3.1486
3.1606
3.16685
3.16635
3.16735
3.1756
3.18785
3.19885
3.2051
3.20385
3.19535
3.18585
3.17635
3.16535
3.15185
3.1381
3.1271
3.12085
3.12335
3.1316
3.1471
3.1686
3.19385
3.21285
3.22085
3.2196
3.2086
3.19535
3.1861
3.1801
3.17035
3.1561
3.14185
3.13635
3.1381
3.14985
3.1696
3.1911
3.21135
3.23335
3.25435
3.26585
3.2656
3.25585
3.2421
3.23085
3.2166
3.1996
3.18385
3.1731
3.1686
3.16985
3.1786
3.18935
3.20485
3.2266
3.2566
3.2851
3.30035
3.3001
3.28635
3.2631
3.2391
3.2136
3.1861
3.16585
3.15235
3.14735
3.1511
3.16235
3.17335
3.1861
3.1996
3.2106
3.21935
3.2221
3.22085
3.2126
3.2041
3.1976
3.19035
3.1826
3.1801
3.18635
3.1966
3.21385
3.23335
3.25235
3.2741
3.29985
3.3211
3.3316
3.32985
3.3221
3.3081
3.2896
3.27035
3.24935
3.2241
3.19935
3.18285
3.17735
3.1816
3.1866
3.19185
3.20485
3.2286
3.2596
3.28585
3.3001
3.3006
3.29135
3.27885
3.26785
3.2531
3.2371
3.22435
3.21735
3.21735
3.21835
3.22185
3.22485
3.23035
3.24135
3.2586
3.2726
3.2801
3.27835
3.2686
3.2576
3.2496
3.2406
3.23085
3.2261
3.2236
3.2251
3.23035
3.2316
3.2286
3.22535
3.22935
3.23535
3.23435
3.2321
3.2301
3.22635
3.2256
3.2266
3.2236
3.2166
3.21035
3.2061
3.2086
3.2226
3.24285
3.2636
3.2876
3.31985
3.34735
3.3616
3.3616
3.3536
3.3391
3.3206
3.2966
3.2676
3.2341
3.19935
3.1721
3.1621
3.1756
3.20435
3.2361
3.2656
3.28935
3.3056
3.31135
3.30585
3.2921
3.27735
3.26385
3.25135
3.23485
3.2166
3.20185
3.1941
3.1991
3.21435
3.23535
3.2631
3.29785
3.33885
3.3801
3.4131
3.43911
3.45786
3.47161
3.47736
3.47786
3.46986
3.45861
3.45486
3.46011
3.47136
3.49086
3.51311
3.53761
3.56736
3.59861
3.61961
3.62336
3.61361
3.58761
3.55086
3.52086
3.50211
3.49161
3.48761
3.49211
3.50911
3.53636
3.56886
3.59811
3.62536
3.65236
3.67386
3.68236
3.67936
3.66911
3.64986
3.62536
3.59936
3.57186
3.54086
3.51186
3.48861
3.46986
3.45586
3.45011
3.44686
3.44686
3.45036
3.46086
3.47361
3.48236
3.48111
3.46961
3.45461
3.43711
3.41685
3.39835
3.3861
3.3846
3.3861
3.3886
3.3951
3.40085
3.4061
3.41185
3.4166
3.4171
3.41185
3.4051
3.3921
3.3741
3.35285
3.32685
3.3011
3.27835
3.2596
3.2471
3.24285
3.24285
3.24835
3.26185
3.2826
3.30385
3.32035
3.32735
3.3236
3.30885
3.2876
3.2716
3.25935
3.2506
3.24335
3.2396
3.23935
3.24235
3.25135
3.2616
3.2761
3.29535
3.31335
3.3261
3.3331
3.3351
3.3276
3.31435
3.29585
3.2691
3.2406
3.2166
3.19785
3.18485
3.1826
3.18585
3.19285
3.2076
3.2331
3.2596
3.28185
3.29885
3.3086
3.3096
3.3041
3.2906
3.2721
3.2541
3.2416
3.23435
3.23485
3.2441
3.2566
3.2711
3.28785
3.30335
3.3091
3.3086
3.3056
3.29935
3.2936
3.28585
3.2736
3.2521
3.22635
3.20835
3.2011
3.2031
3.2061
3.21085
3.2171
3.22185
3.2271
3.22835
3.2306
3.23835
3.2526
3.2756
3.30785
3.3456
3.3836
3.42635
3.47886
3.53686
3.60511
3.68986
3.79137
3.91187
4.05087
4.19988
4.34863
4.49589
4.64439
4.78965
4.9284
5.05765
5.17741
5.28841
5.40417
5.53067
5.65542
5.75918
5.81143
5.78568
5.68067
5.51467
5.30591
5.06465
4.81015
4.56014
4.32663
4.11888
3.94087
3.78762
3.65361
3.53636
3.43535
3.34435
3.26335
3.1896
3.1151
3.04034
2.96834
2.89584
2.81734
2.73533
2.65658
2.57983
2.51308
2.45883
2.41907
2.39832
2.39807
2.41432
2.44707
2.50133
2.57433
2.65908
2.75033
2.84384
2.93884
3.03059
3.1101
3.17035
3.20635
3.22685
3.2351
3.2281
3.2156
3.20585
3.2071
3.21535
3.2311
3.2431
3.2426
3.24185
3.2461
3.2506
3.25485
3.2571
3.2556
3.25335
3.2586
3.26585
3.2681
3.2666
3.2701
3.2766
3.2841
3.2936
3.3041
3.31585
3.33535
3.3646
3.3916
3.4151
3.43185
3.43585
3.42685
3.41035
3.38785
3.35735
3.32685
3.30335
3.2911
3.2891
3.2981
3.31185
3.3271
3.3421
3.3571
3.3696
3.3761
3.37785
3.3736
3.3606
3.34385
3.32835
3.3171
3.3131
3.3121
3.31535
3.3216
3.33185
3.3436
3.3546
3.3656
3.3786
3.38835
3.3921
3.39035
3.3821
3.3766
3.3726
3.3671
3.3591
3.35335
3.3516
3.3546
3.36385
3.37585
3.3871
3.39635
3.4091
3.4261
3.44411
3.46086
3.47336
3.47961
3.48411
3.48086
3.46511
3.44011
3.4176
3.4086
3.41385
3.4321
3.45386
3.47536
3.49486
3.51436
3.52986
3.53636
3.53586
3.52986
3.52161
3.51536
3.51136
3.50736
3.50136
3.49836
3.49711
3.50111
3.50986
3.52011
3.53536
3.56086
3.58636
3.61086
3.63286
3.65061
3.65811
3.65411
3.64411
3.63186
3.61536
3.59536
3.57811
3.56861
3.57136
3.58836
3.61411
3.64611
3.68036
3.71236
3.73686
3.75436
3.76862
3.77587
3.77412
3.76687
3.75411
3.73461
3.71461
3.69961
3.68761
3.68161
3.68436
3.69436
3.71411
3.74636
3.78862
3.82887
3.86362
3.89337
3.91537
3.93087
3.94312
3.95137
3.95412
3.95362
3.95387
3.95887
3.96862
3.98687
4.00837
4.02787
4.05137
4.08362
4.11663
4.14263
4.16013
4.16913
4.16988
4.16613
4.16038
4.15113
4.14088
4.13488
4.13613
4.14363
4.15488
4.16888
4.18213
4.19838
4.21988
4.23938
4.25438
4.26688
4.27563
4.28038
4.27888
4.27063
4.25288
4.23288
4.21813
4.21063
4.20888
4.21138
4.21613
4.22363
4.23038
4.23463
4.23113
4.21638
4.19013
4.15488
4.11838
4.07462
4.02437
3.97112
3.91962
3.87987
3.85537
3.84162
3.83312
3.82287
3.81112
3.79912
3.78787
3.77312
3.75061
3.72061
3.68486
3.64711
3.60536
3.55861
3.50936
3.46361
3.42535
3.39385
3.3716
3.3556
3.3416
3.33185
3.3301
3.3326
3.32935
3.3191
3.3021
3.2811
3.25485
3.2191
3.1816
3.14235
3.1106
3.09034
3.07809
3.07559
3.07684
3.07884
3.08409
3.09284
3.10284
3.10634
3.10159
3.09159
3.07384
3.05334
3.03434
3.01234
2.98909
2.96634
2.94759
2.93409
2.93109
2.94084
2.95584
2.97284
2.99134
3.00409
3.00884
3.00884
3.00134
2.98959
2.97609
2.95584
2.92634
2.89934
2.88434
2.88034
2.88609
2.89909
2.91509
2.93034
2.94384
2.95934
2.97259
2.98084
2.98509
2.98784
2.99034
2.99259
2.98609
2.96909
2.94884
2.93259
2.92209
2.91959
2.92959
2.94609
2.95984
2.97534
2.99684
3.01509
3.02659
3.03509
3.04209
3.04734
3.05284
3.05259
3.04559
3.03309
3.01759
3.00209
2.99109
2.98559
2.98859
2.99759
3.01059
3.02409
3.03434
3.04009
3.04059
3.03884
3.03159
3.02309
3.01684
3.00784
2.99434
2.98284
2.97634
2.97759
2.98584
2.99934
3.02034
3.04584
3.07184
3.09234
3.10784
3.1191
3.12485
3.12285
3.11585
3.10334
3.08034
3.04934
3.02184
3.00609
2.99784
2.99359
2.99159
2.99834
3.01884
3.04909
3.07809
3.09709
3.10334
3.09859
3.08659
3.07359
3.06059
3.04384
3.02659
3.01359
3.00584
3.00934
3.02184
3.04084
3.06259
3.08634
3.10659
3.1161
3.1166
3.11135
3.10134
3.08809
3.07584
3.06284
3.04709
3.03334
3.02734
3.03509
3.05334
3.07334
3.08834
3.10784
3.1376
3.16885
3.18985
3.2026
3.2076
3.2011
3.1881
3.1711
3.14885
3.1241
3.10734
3.09784
3.09434
3.09709
3.10309
3.1106
3.11635
3.1206
3.1221
3.1221
3.12335
3.1231
3.12035
3.1151
3.10409
3.08559
3.06559
3.05459
3.05109
3.05384
3.06609
3.08459
3.10409
3.1236
3.1466
3.1701
3.18835
3.19735
3.19935
3.19435
3.1861
3.1741
3.1551
3.13485
3.1206
3.1101
3.10084
3.09784
3.10209
3.11235
3.12535
3.1421
3.15485
3.1631
3.16935
3.1676
3.15635
3.13985
3.1196
3.09784
3.07959
3.07334
3.07459
3.07934
3.08584
3.09409
3.10509
3.1186
3.13635
3.1536
3.17085
3.1866
3.1896
3.18235
3.17135
3.15485
3.1341
3.1126
3.09409
3.08259
3.07734
3.08059
3.08859
3.10034
3.11885
3.14035
3.15685
3.16485
3.1666
3.1616
3.15185
3.13585
3.11985
3.10209
3.08734
3.07934
3.07909
3.08384
3.08959
3.09484
3.09759
3.10334
3.1086
3.1131
3.1126
3.1086
3.09884
3.08784
3.08259
3.08584
3.08984
3.09759
3.10935
3.1166
3.1256
3.14135
3.16235
3.18535
3.20535
3.21585
3.2131
3.2041
3.19085
3.1736
3.1591
3.1506
3.1406
3.1296
3.11735
3.10484
3.10209
3.1136
3.1311
3.1451
3.15885
3.1716
3.1796
3.18335
3.1856
3.18535
3.17535
3.1656
3.16035
3.1571
3.14885
3.1426
3.1396
3.14035
3.14535
3.15135
3.1566
3.16235
3.1661
3.1646
3.1631
3.1656
3.16985
3.16935
3.1656
3.1631
3.1561
3.1421
3.13035
3.12235
3.1191
3.12835
3.1486
3.1691
3.18835
3.21335
3.23535
3.2501
3.2576
3.25685
3.24885
3.23535
3.21685
3.1951
3.16935
3.14085
3.10835
3.07934
3.06759
3.07834
3.10359
3.13385
3.16435
3.1906
3.2091
3.2236
3.2326
3.2361
3.2346
3.22685
3.2141
3.20285
3.19535
3.19235
3.1931
3.19985
3.2076
3.2176
3.22935
3.24185
3.25185
3.25685
3.2516
3.2351
3.2096
3.18435
3.1631
3.14135
3.1226
3.11185
3.1086
3.11435
3.1281
3.14235
3.16035
3.18085
3.2026
3.2196
3.22885
3.22885
3.2176
3.20435
3.19685
3.19035
3.18235
3.17885
3.17685
3.17285
3.1701
3.1706
3.17935
3.2006
3.23185
3.2651
3.28835
3.30085
3.3031
3.2981
3.2916
3.28585
3.27435
3.25185
3.22835
3.2091
3.19785
3.1966
3.2041
3.21585
3.23585
3.2566
3.26785
3.2681
3.2626
3.2551
3.2416
3.2271
3.21235
3.20235
3.1996
3.20135
3.20585
3.21335
3.2241
3.23285
3.24135
3.24985
3.2611
3.2711
3.2766
3.27735
3.2791
3.27785
3.27485
3.2671
3.2506
3.2251
3.1991
3.1816
3.17435
3.1796
3.1916
3.2096
3.23485
3.2651
3.2926
3.3111
3.3201
3.3261
3.32685
3.3211
3.30935
3.29135
3.2681
3.2456
3.22885
3.22135
3.22385
3.23085
3.23935
3.2521
3.2666
3.27485
3.2741
3.2731
3.2706
3.2666
3.26885
3.2761
3.27885
3.2726
3.26085
3.2506
3.2446
3.2466
3.2556
3.26685
3.2791
3.29685
3.3126
3.31735
3.31285
3.30535
3.2936
3.28485
3.2741
3.26185
3.25085
3.23985
3.2286
3.2261
3.23285
3.24585
3.2606
3.2751
3.2866
3.29035
3.2881
3.27985
3.26985
3.2626
3.25835
3.2506
3.23935
3.22635
3.21485
3.2086
3.20985
3.21985
3.2311
3.2436
3.2566
3.27385
3.28785
3.2986
3.3036
3.30235
3.30035
3.29435
3.27335
3.2416
3.21985
3.21035
3.2096
3.21835
3.23435
3.25085
3.26835
3.28885
3.31535
3.3406
3.35785
3.36285
3.3596
3.3511
3.33135
3.30585
3.2821
3.2631
3.2491
3.2381
3.23635
3.24435
3.2541
3.2671
3.28885
3.31735
3.34085
3.35485
3.35835
3.3541
3.3466
3.33735
3.3221
3.2986
3.2781
3.26285
3.25385
3.2531
3.2581
3.2676
3.28135
3.2956
3.3061
3.30735
3.2981
3.2876
3.27985
3.2741
3.26485
3.25235
3.2406
3.23385
3.23735
3.24285
3.2491
3.25335
3.2536
3.25535
3.26335
3.2746
3.2826
3.28735
3.2856
3.2771
3.26635
3.25485
3.24635
3.2406
3.2341
3.23135
3.23835
3.2561
3.27835
3.29835
3.3211
3.3481
3.37435
3.39135
3.39485
3.39185
3.3876
3.3796
3.36485
3.3391
3.30835
3.2856
3.2691
3.2591
3.25585
3.2551
3.26085
3.27385
3.29485
3.31235
3.31785
3.3096
3.2901
3.2691
3.2511
3.2376
3.2331
3.2361
3.24385
3.2566
3.2716
3.28785
3.30485
3.3301
3.3581
3.3851
3.4086
3.4226
3.42635
3.42685
3.4281
3.43035
3.43085
3.42735
3.4206
3.4181
3.42335
3.43636
3.45586
3.47786
3.50136
3.53136
3.56661
3.59186
3.60661
3.61211
3.60636
3.59211
3.57236
3.54986
3.52786
3.50461
3.48536
3.47986
3.48911
3.50736
3.53411
3.56836
3.60486
3.63661
3.66236
3.67936
3.69011
3.69686
3.69861
3.69411
3.68361
3.66586
3.64511
3.62386
3.60236
3.58186
3.56386
3.54911
3.54261
3.54611
3.55261
3.56036
3.56836
3.56861
3.55961
3.54361
3.51911
3.48786
3.45086
3.4161
3.39085
3.37885
3.3801
3.3906
3.40585
3.42435
3.44436
3.46286
3.47811
3.48611
3.48411
3.46911
3.44986
3.4261
3.3926
3.35235
3.29385
3.2816
3.2781
3.27785
3.28185
3.29235
3.3096
3.32635
3.33435
3.3326
3.3231
3.31035
3.3011
3.2916
3.2841
3.27885
3.27335
3.2671
3.2586
3.25435
3.25085
3.2471
3.24585
3.2571
3.27735
3.2951
3.30985
3.3181
3.3206
3.31585
3.30235
3.2781
3.2511
3.2291
3.22035
3.22485
3.23785
3.25285
3.27235
3.2936
3.31585
3.3386
3.3576
3.3671
3.3646
3.35535
3.3446
3.32985
3.3111
3.28685
3.26385
3.24735
3.2396
3.23685
3.23485
3.2361
3.24835
3.2666
3.2831
3.29785
3.30835
3.3111
3.3056
3.29385
3.2816
3.2716
3.26735
3.27135
3.27835
3.2806
3.27635
3.26685
3.2551
3.24235
3.2301
3.2201
3.2136
3.2076
3.2026
3.2051
3.2156
3.23335
3.2571
3.2861
3.32535
3.38235
3.45811
3.54861
3.65136
3.76487
3.89512
4.03987
4.19088
4.33963
4.47739
4.61139
4.7449
4.87465
4.9929
5.10641
5.22216
5.34366
5.48142
5.62867
5.76668
5.85543
5.86168
5.77943
5.62467
5.41642
5.17841
4.9324
4.69164
4.47014
4.27538
4.09688
3.93412
3.78912
3.65986
3.54711
3.45011
3.36635
3.2911
3.2191
3.14935
3.07634
2.99609
2.90809
2.81409
2.71833
2.62858
2.55333
2.49208
2.44332
2.41207
2.40182
2.41057
2.43782
2.47558
2.52533
2.59083
2.67033
2.75783
2.84859
2.93959
3.02359
3.09559
3.1586
3.21635
3.2556
3.27435
3.2816
3.28185
3.27785
3.2726
3.2721
3.2821
3.2976
3.31235
3.3241
3.3326
3.3366
3.3306
3.3156
3.2941
3.2726
3.25385
3.2391
3.2311
3.22935
3.2301
3.2391
3.2516
3.26835
3.28885
3.3161
3.34085
3.3606
3.37235
3.37335
3.3661
3.35135
3.3281
3.2961
3.2646
3.2456
3.24035
3.2446
3.2551
3.27135
3.29685
3.32785
3.36135
3.38985
3.40685
3.4136
3.4081
3.3976
3.38685
3.37385
3.3521
3.32385
3.2971
3.2781
3.26785
3.26835
3.27485
3.28885
3.30885
3.3331
3.3521
3.36335
3.3691
3.3676
3.36085
3.3511
3.3401
3.3241
3.3096
3.29535
3.2801
3.2676
3.26085
3.25785
3.2621
3.27935
3.3071
3.33285
3.35035
3.35885
3.3621
3.36835
3.37385
3.3726
3.3631
3.3516
3.3431
3.3411
3.3491
3.3691
3.39185
3.41685
3.44311
3.45936
3.46186
3.45536
3.44686
3.4351
3.4236
3.40785
3.3941
3.38285
3.37635
3.3791
3.38835
3.40285
3.4231
3.44436
3.46486
3.48511
3.50811
3.53036
3.55061
3.57186
3.58511
3.58886
3.57811
3.55386
3.52361
3.50236
3.49161
3.49011
3.49911
3.51711
3.54311
3.57811
3.62036
3.66261
3.69836
3.72311
3.74086
3.74911
3.74736
3.73436
3.71261
3.68461
3.65836
3.64261
3.63711
3.64311
3.65986
3.68061
3.70711
3.74311
3.77987
3.80937
3.82987
3.84412
3.85887
3.87287
3.87562
3.87187
3.86462
3.85712
3.85387
3.86037
3.88087
3.91187
3.94812
3.99012
4.03512
4.07487
4.10188
4.11463
4.11463
4.10213
4.08887
4.07562
4.06412
4.05887
4.06262
4.07412
4.08938
4.11213
4.13913
4.16838
4.19988
4.23138
4.25488
4.27188
4.28463
4.28638
4.27938
4.26738
4.24713
4.22063
4.19613
4.17738
4.16338
4.15538
4.15613
4.15913
4.16888
4.18513
4.20538
4.22338
4.22888
4.22138
4.19938
4.16538
4.12463
4.07937
4.03112
3.98262
3.94262
3.91212
3.89312
3.88337
3.87837
3.87637
3.87687
3.87262
3.86337
3.84837
3.82887
3.80112
3.76737
3.72836
3.68086
3.62611
3.57486
3.53086
3.49311
3.46386
3.44061
3.4241
3.41335
3.4076
3.4046
3.39635
3.3836
3.3666
3.34435
3.31635
3.28335
3.24835
3.2151
3.1866
3.16035
3.14235
3.1316
3.1221
3.1141
3.1181
3.1331
3.1496
3.1571
3.1511
3.1276
3.09509
3.06709
3.03984
3.00909
2.97384
2.94159
2.91659
2.90034
2.89459
2.89684
2.90559
2.91834
2.93659
2.96109
2.98134
2.99259
2.99234
2.97884
2.95959
2.93459
2.90109
2.86334
2.83584
2.82109
2.81434
2.81759
2.83109
2.85109
2.88159
2.91934
2.95159
2.97109
2.97984
2.97834
2.97434
2.97359
2.97234
2.96459
2.94709
2.93384
2.92609
2.92034
2.91984
2.92684
2.93859
2.95259
2.96909
2.98109
2.98959
2.99334
2.99034
2.98709
2.98409
2.97234
2.95309
2.93559
2.92134
2.91234
2.90559
2.90659
2.91384
2.92809
2.94434
2.96259
2.97609
2.98134
2.97809
2.96909
2.96109
2.95259
2.94409
2.93834
2.93734
2.94384
2.95434
2.96359
2.97309
2.97734
2.97559
2.97634
2.98134
2.98309
2.97709
2.96734
2.95534
2.94184
2.93134
2.92684
2.92434
2.92284
2.92584
2.93034
2.93209
2.93684
2.94909
2.96809
2.99184
3.01584
3.03334
3.04134
3.03959
3.02809
3.01084
2.99109
2.97184
2.95359
2.93959
2.93534
2.93884
2.95784
2.98559
3.01409
3.04359
3.07159
3.09509
3.10534
3.10609
3.10184
3.09559
3.09259
3.08734
3.07909
3.06884
3.05734
3.04609
3.03834
3.04209
3.04209
3.04909
3.05959
3.07634
3.09159
3.09684
3.09859
3.09509
3.08434
3.06909
3.05109
3.03234
3.01934
3.01484
3.01534
3.02134
3.03084
3.04234
3.04734
3.04884
3.05184
3.05734
3.06009
3.06084
3.06059
3.05834
3.05384
3.04934
3.04384
3.03784
3.03284
3.03284
3.03959
3.05434
3.06909
3.08459
3.10459
3.1296
3.15035
3.16185
3.1646
3.15535
3.13685
3.11735
3.09734
3.07559
3.05409
3.03859
3.02834
3.02384
3.02759
3.03259
3.03634
3.04284
3.05384
3.06609
3.07434
3.07684
3.07884
3.07984
3.07159
3.05709
3.04234
3.03234
3.02484
3.01909
3.01959
3.02584
3.03859
3.05809
3.08684
3.11735
3.1436
3.1611
3.1646
3.1571
3.1416
3.11985
3.09309
3.06309
3.03684
3.01834
3.00959
3.01384
3.02584
3.04059
3.05259
3.06434
3.07834
3.09234
3.10534
3.10784
3.09284
3.07234
3.05984
3.04859
3.03284
3.01984
3.01159
3.00709
3.01084
3.02334
3.03934
3.05884
3.08159
3.10684
3.12585
3.1381
3.1466
3.14885
3.14335
3.13085
3.1086
3.07784
3.05009
3.03659
3.03509
3.04309
3.05959
3.08459
3.11535
3.15085
3.1846
3.2081
3.2186
3.2176
3.20535
3.1856
3.1616
3.1361
3.10684
3.07659
3.04959
3.03334
3.02784
3.02984
3.04234
3.06459
3.09209
3.11835
3.13735
3.1506
3.1556
3.14935
3.13535
3.11785
3.10209
3.09659
3.09509
3.09659
3.10334
3.1176
3.1406
3.1676
3.1931
3.21085
3.2231
3.22535
3.2196
3.20735
3.1916
3.17535
3.1601
3.1371
3.10734
3.08084
3.06184
3.05209
3.05234
3.06334
3.08259
3.10885
3.13585
3.16085
3.1801
3.1926
3.1921
3.1796
3.1636
3.15035
3.1406
3.13685
3.13885
3.1456
3.1516
3.1571
3.16135
3.16785
3.17735
3.1911
3.2016
3.2006
3.19035
3.17735
3.16535
3.1576
3.1556
3.1546
3.1491
3.14435
3.14435
3.14935
3.15585
3.1631
3.1791
3.19735
3.2186
3.23685
3.24885
3.25585
3.25635
3.2491
3.2376
3.2181
3.1921
3.16585
3.1451
3.1286
3.1261
3.1356
3.15135
3.17235
3.19735
3.22485
3.2471
3.25885
3.2636
3.26585
3.26135
3.2456
3.22235
3.18935
3.1536
3.1266
3.1186
3.1246
3.1366
3.1506
3.1696
3.19435
3.2206
3.2411
3.25385
3.2586
3.25635
3.2476
3.2381
3.22785
3.21735
3.21135
3.20435
3.1946
3.18685
3.1821
3.1806
3.18585
3.1966
3.21135
3.22285
3.22735
3.2256
3.2256
3.2246
3.21935
3.2081
3.19485
3.1851
3.18135
3.1836
3.18835
3.1926
3.19885
3.2136
3.2346
3.2531
3.2646
3.2706
3.2701
3.26935
3.2681
3.26185
3.24885
3.23835
3.2376
3.24385
3.2506
3.25535
3.2566
3.25735
3.26135
3.2716
3.2816
3.2831
3.2766
3.26485
3.2491
3.2321
3.21835
3.2121
3.2181
3.22885
3.2441
3.2621
3.27935
3.2956
3.3116
3.3326
3.34935
3.35835
3.3601
3.3526
3.33485
3.31385
3.28885
3.2616
3.2351
3.2146
3.2016
3.19835
3.20585
3.2166
3.22835
3.2466
3.27135
3.2951
3.3121
3.3226
3.3236
3.3176
3.30935
3.2991
3.2846
3.26885
3.2531
3.2406
3.2361
3.2431
3.25585
3.2706
3.2886
3.3091
3.32585
3.33735
3.34335
3.34385
3.3391
3.33085
3.32585
3.32035
3.31385
3.30635
3.29735
3.2881
3.27485
3.26185
3.2591
3.27235
3.2971
3.31885
3.32985
3.3296
3.32085
3.31385
3.30635
3.2986
3.28935
3.27535
3.2611
3.25135
3.25135
3.2621
3.2766
3.2921
3.31185
3.3351
3.35835
3.3761
3.3831
3.37335
3.35385
3.33585
3.31185
3.27985
3.2526
3.23835
3.2341
3.23685
3.24785
3.2646
3.29235
3.32735
3.36085
3.3856
3.40135
3.4076
3.4011
3.3886
3.3781
3.36635
3.35385
3.3491
3.3521
3.36285
3.3851
3.41685
3.45036
3.47886
3.50586
3.52661
3.53711
3.53886
3.53361
3.51736
3.49286
3.46186
3.42235
3.3816
3.35385
3.3411
3.34135
3.35535
3.3846
3.42235
3.46786
3.52511
3.58861
3.64611
3.68811
3.71061
3.71861
3.71911
3.71236
3.70061
3.67836
3.64886
3.61736
3.59136
3.57486
3.56386
3.55686
3.55561
3.55836
3.56011
3.56011
3.55311
3.53711
3.51111
3.48286
3.45586
3.42635
3.39135
3.35735
3.33085
3.31135
3.30885
3.31985
3.33285
3.3441
3.3586
3.37285
3.3856
3.3971
3.39885
3.3896
3.36885
3.34085
3.30735
3.2796
3.2626
3.25135
3.24535
3.24335
3.24135
3.24285
3.25085
3.26385
3.27385
3.2761
3.27335
3.2641
3.2531
3.2441
3.2331
3.21535
3.1996
3.19135
3.18835
3.19185
3.20135
3.2116
3.22735
3.24635
3.2626
3.2661
3.25985
3.2486
3.2411
3.2346
3.22785
3.22185
3.21285
3.20485
3.2011
3.1991
3.19835
3.2026
3.21035
3.2211
3.23635
3.25485
3.2706
3.28435
3.2971
3.29935
3.2911
3.27635
3.25535
3.2301
3.20885
3.1951
3.1886
3.18885
3.1996
3.21485
3.23085
3.24735
3.2686
3.29035
3.30935
3.32385
3.32585
3.31635
3.2981
3.2716
3.23835
3.2056
3.17985
3.1626
3.15635
3.15235
3.1476
3.1451
3.1481
3.15335
3.15685
3.15585
3.14785
3.14035
3.1411
3.1516
3.1691
3.1981
3.23885
3.28985
3.35085
3.4266
3.52136
3.62936
3.74686
3.87312
4.00662
4.14638
4.28713
4.42189
4.55014
4.67889
4.8079
4.9354
5.05965
5.18441
5.31266
5.44667
5.58617
5.71242
5.78668
5.77393
5.66867
5.49917
5.28666
5.0439
4.7894
4.53914
4.31363
4.12063
3.95337
3.81062
3.69761
3.61636
3.57211
3.55536
3.54536
3.53161
3.51561
3.49461
3.46286
3.41435
3.3506
3.27185
3.18385
3.09284
2.99334
2.88459
2.77683
2.68483
2.61333
2.56108
2.53233
2.52458
2.53683
2.57183
2.62433
2.68883
2.75933
2.83234
2.90009
2.95859
3.01459
3.06559
3.10684
3.1396
3.1691
3.1926
3.2131
3.2306
3.24485
3.25335
3.2616
3.2716
3.28035
3.28885
3.2996
3.3081
3.31035
3.3111
3.31285
3.30935
3.2996
3.29335
3.29185
3.29385
3.30135
3.31085
3.32385
3.34185
3.36085
3.3751
3.37935
3.37685
3.3636
3.34285
3.32235
3.29985
3.27435
3.25685
3.25335
3.2606
3.27635
3.2916
3.3061
3.3221
3.33985
3.3636
3.38535
3.40035
3.4016
3.39885
3.39985
3.3941
3.3816
3.3666
3.35335
3.34635
3.3431
3.34435
3.35335
3.37035
3.39285
3.41785
3.43636
3.44636
3.44736
3.44436
3.43585
3.4236
3.4066
3.39085
3.3781
3.3666
3.3561
3.34935
3.3496
3.35685
3.36835
3.38985
3.42085
3.45511
3.48086
3.49811
3.51311
3.52186
3.51911
3.50586
3.48411
3.45911
3.43636
3.4186
3.40435
3.3996
3.4076
3.42085
3.44011
3.46586
3.49161
3.50736
3.51386
3.51136
3.50136
3.49011
3.48161
3.47586
3.47236
3.47236
3.47486
3.48036
3.49486
3.51411
3.53136
3.54986
3.57511
3.60336
3.62236
3.63111
3.62636
3.61386
3.60011
3.58636
3.57486
3.57236
3.58136
3.59511
3.60361
3.61136
3.61686
3.62636
3.64486
3.67286
3.70111
3.72211
3.73461
3.74086
3.74011
3.73711
3.73236
3.72311
3.71086
3.70286
3.70011
3.70511
3.72136
3.74461
3.77437
3.80912
3.84487
3.87162
3.88637
3.89287
3.89587
3.89512
3.89137
3.88362
3.86812
3.85612
3.85187
3.85562
3.86762
3.88712
3.90962
3.93187
3.95487
3.97662
3.99512
4.01187
4.02437
4.02937
4.03187
4.03912
4.04962
4.05162
4.04537
4.03712
4.03312
4.03687
4.04587
4.05662
4.07162
4.09462
4.12563
4.15613
4.17988
4.19538
4.20113
4.20188
4.19663
4.18338
4.16263
4.14138
4.12513
4.11488
4.11038
4.11488
4.12688
4.14263
4.15938
4.17238
4.17538
4.17138
4.15913
4.12813
4.08512
4.03987
3.99437
3.94837
3.90637
3.86962
3.84137
3.82612
3.82087
3.81962
3.81662
3.81312
3.81162
3.80762
3.79637
3.77962
3.75536
3.73061
3.70811
3.67911
3.64436
3.60736
3.57061
3.53686
3.51161
3.49061
3.47436
3.46411
3.46011
3.46011
3.45736
3.44861
3.4336
3.4101
3.3801
3.34535
3.3046
3.2601
3.21935
3.1916
3.1771
3.16935
3.1686
3.17085
3.1751
3.1786
3.17985
3.1816
3.1831
3.1801
3.17635
3.1721
3.1631
3.1481
3.13085
3.11635
3.10259
3.09209
3.08459
3.07984
3.08234
3.08759
3.09409
3.09834
3.09859
3.09459
3.08334
3.06309
3.04334
3.02284
2.99884
2.97659
2.96209
2.96534
2.98584
3.01884
3.04734
3.06934
3.09084
3.11085
3.12085
3.11935
3.11385
3.10084
3.08409
3.06984
3.05459
3.03509
3.01859
3.00759
3.00484
3.00784
3.01659
3.02409
3.03159
3.04284
3.06359
3.08484
3.10309
3.11485
3.11535
3.11085
3.10484
3.09534
3.08059
3.06534
3.05684
3.05309
3.05309
3.05684
3.06459
3.08059
3.10359
3.12535
3.14185
3.15585
3.16135
3.1611
3.1556
3.1486
3.1361
3.11835
3.10334
3.09634
3.09834
3.10885
3.1231
3.1346
3.1491
3.16585
3.1791
3.1841
3.17735
3.1611
3.1356
3.11335
3.09759
3.08409
3.07009
3.05959
3.05259
3.04909
3.05084
3.05709
3.06559
3.07934
3.09434
3.10935
3.12185
3.13185
3.13435
3.1311
3.1251
3.11735
3.10509
3.08709
3.06609
3.04909
3.03934
3.04159
3.05084
3.06084
3.07534
3.09959
3.12485
3.1456
3.1576
3.16135
3.1541
3.14385
3.1331
3.1186
3.10159
3.08634
3.07234
3.06159
3.05359
3.05084
3.05434
3.07034
3.09384
3.11735
3.13735
3.1501
3.1556
3.1551
3.1511
3.1391
3.1201
3.09959
3.08784
3.08109
3.07459
3.06734
3.06509
3.07434
3.09134
3.1151
3.14435
3.1736
3.19685
3.2071
3.20385
3.19335
3.17485
3.1511
3.1261
3.10434
3.08884
3.07859
3.07384
3.07359
3.07734
3.08634
3.09959
3.1086
3.11435
3.12235
3.1251
3.12035
3.11835
3.1196
3.1176
3.1101
3.10309
3.09934
3.10459
3.12035
3.1346
3.14485
3.1531
3.16235
3.1701
3.17435
3.1731
3.1651
3.1526
3.1391
3.1216
3.10034
3.07784
3.05809
3.04659
3.04834
3.06309
3.08309
3.10434
3.12785
3.1531
3.1711
3.1801
3.1816
3.17535
3.1661
3.15335
3.1356
3.1151
3.09809
3.09009
3.09084
3.10284
3.12485
3.1436
3.15985
3.1746
3.1841
3.18985
3.19285
3.19035
3.1801
3.16785
3.15535
3.1426
3.13035
3.1221
3.11635
3.1136
3.1176
3.1276
3.14035
3.1541
3.17435
3.19735
3.21335
3.22185
3.22085
3.21035
3.19685
3.1816
3.16485
3.14335
3.1211
3.10985
3.1121
3.13035
3.16035
3.1946
3.22835
3.2606
3.28485
3.2976
3.30435
3.3056
3.2986
3.28885
3.2666
3.2356
3.20585
3.18685
3.1786
3.17985
3.18635
3.1906
3.1876
3.1846
3.1906
3.2001
3.2041
3.20235
3.19885
3.19835
3.2061
3.21635
3.21985
3.2136
3.2041
3.19685
3.18885
3.18835
3.1971
3.2136
3.23385
3.2561
3.27035
3.2741
3.2701
3.26335
3.2531
3.2351
3.2106
3.1801
3.1506
3.12785
3.11235
3.10759
3.1151
3.12785
3.14785
3.1761
3.2086
3.2311
3.2411
3.24085
3.23035
3.2141
3.19635
3.1776
3.15335
3.1281
3.10684
3.09634
3.09634
3.10659
3.12035
3.1336
3.15085
3.17585
3.1931
3.2011
3.20485
3.2016
3.19085
3.1771
3.1606
3.14135
3.12585
3.11685
3.11385
3.1226
3.13985
3.1576
3.1761
3.2021
3.23085
3.2506
3.2646
3.2736
3.27385
3.2661
3.25385
3.2396
3.21785
3.1971
3.1846
3.18485
3.19535
3.21085
3.22435
3.23085
3.2346
3.23385
3.2286
3.22035
3.2131
3.2066
3.19785
3.18635
3.17185
3.15485
3.1441
3.14985
3.1621
3.17885
3.2011
3.2256
3.2486
3.2716
3.29185
3.3031
3.30035
3.28835
3.27285
3.25635
3.2346
3.20835
3.18085
3.15935
3.1501
3.15635
3.1731
3.1941
3.21335
3.2331
3.25485
3.2716
3.2816
3.2841
3.2796
3.26435
3.2421
3.22135
3.20285
3.18335
3.1661
3.16035
3.16985
3.18985
3.2096
3.22485
3.2416
3.26635
3.29085
3.30935
3.32135
3.3261
3.3221
3.3091
3.2896
3.2651
3.23735
3.21035
3.1916
3.18535
3.1911
3.2036
3.2211
3.2426
3.2631
3.2816
3.2906
3.28735
3.27535
3.2606
3.24985
3.2386
3.2246
3.2121
3.20535
3.20835
3.21685
3.23135
3.24985
3.27585
3.30535
3.33735
3.3646
3.3781
3.3776
3.36885
3.3551
3.33435
3.3051
3.2726
3.2426
3.22135
3.20735
3.2011
3.2036
3.2131
3.22835
3.25185
3.28035
3.3026
3.31335
3.3171
3.3186
3.3166
3.31635
3.31685
3.31785
3.32335
3.3351
3.35085
3.37085
3.39285
3.40935
3.4246
3.44711
3.47111
3.48686
3.50011
3.51461
3.52736
3.53061
3.52886
3.52486
3.52111
3.52286
3.52361
3.52211
3.52686
3.53836
3.54961
3.56061
3.57736
3.59836
3.61461
3.62186
3.62061
3.61561
3.61111
3.61036
3.60886
3.59936
3.58936
3.58611
3.59261
3.60361
3.61536
3.62086
3.62061
3.61836
3.61561
3.60761
3.59261
3.57111
3.54461
3.51286
3.47811
3.44136
3.4036
3.37435
3.35685
3.3471
3.3496
3.3636
3.3826
3.4066
3.4351
3.45636
3.46186
3.45711
3.44711
3.4301
3.4046
3.38185
3.36485
3.34435
3.32335
3.3031
3.27985
3.2621
3.2521
3.24685
3.24835
3.2576
3.26785
3.27235
3.2726
3.2706
3.26185
3.24685
3.2256
3.2006
3.17835
3.16485
3.15785
3.1586
3.16785
3.1821
3.19985
3.21985
3.2431
3.26135
3.2701
3.27035
3.2626
3.24735
3.23035
3.2131
3.19235
3.1666
3.14485
3.1281
3.1151
3.11035
3.1186
3.1361
3.16285
3.19835
3.2316
3.2531
3.26385
3.2641
3.25235
3.2376
3.22585
3.2141
3.19935
3.1831
3.1681
3.1571
3.15335
3.1561
3.1671
3.18135
3.19435
3.2056
3.2161
3.22585
3.23035
3.22785
3.22335
3.21435
3.20035
3.1856
3.1741
3.1701
3.1721
3.1791
3.19035
3.2031
3.2141
3.22335
3.2271
3.22785
3.22535
3.21785
3.20485
3.1871
3.1636
3.13785
3.1236
3.1326
3.1661
3.22085
3.28885
3.36035
3.44061
3.53186
3.63111
3.73211
3.83037
3.92862
4.02687
4.13188
4.24188
4.35488
4.46639
4.58239
4.70664
4.8379
4.9704
5.10791
5.24666
5.39241
5.54567
5.69242
5.80618
5.84968
5.79843
5.64992
5.42792
5.16491
4.8849
4.60964
4.36038
4.14438
3.96437
3.81737
3.69736
3.59836
3.51361
3.43585
3.3566
3.2691
3.17385
3.07484
2.97084
2.87409
2.78534
2.70208
2.62083
2.54558
2.47908
2.42932
2.40282
2.39132
2.39407
2.41357
2.44682
2.49558
2.55483
2.62008
2.68458
2.74608
2.80434
2.85984
2.90684
2.94584
2.98484
3.02909
3.07034
3.10434
3.1286
3.1446
3.1596
3.1846
3.21385
3.2351
3.24235
3.2391
3.2291
3.2211
3.2101
3.19185
3.17385
3.1621
3.16285
3.17635
3.2011
3.22935
3.25135
3.2661
3.2751
3.27635
3.27235
3.26335
3.24835
3.22935
3.2146
3.20335
3.19485
3.1961
3.20585
3.22235
3.2416
3.26685
3.2926
3.3156
3.3371
3.35685
3.37135
3.3771
3.3751
3.3666
3.35035
3.33085
3.3086
3.2861
3.26735
3.25835
3.2616
3.2716
3.28135
3.2876
3.29935
3.31735
3.33985
3.35785
3.36635
3.3646
3.35585
3.3446
3.33285
3.3211
3.30835
3.3026
3.3051
3.3116
3.32535
3.34535
3.36735
3.3826
3.3936
3.40485
3.41785
3.42635
3.4311
3.42835
3.42135
3.4146
3.4096
3.40085
3.39335
3.3916
3.3946
3.40335
3.4136
3.42285
3.42985
3.44186
3.45111
3.46036
3.46711
3.47211
3.47361
3.47061
3.46161
3.45086
3.43611
3.4216
3.4111
3.40685
3.41085
3.41935
3.43235
3.45386
3.48561
3.52036
3.54811
3.56986
3.58586
3.59336
3.59661
3.59486
3.58886
3.57861
3.56636
3.55561
3.55461
3.56561
3.58561
3.60336
3.61586
3.62936
3.63986
3.64686
3.64761
3.64386
3.63711
3.62986
3.62236
3.61311
3.60211
3.59936
3.60936
3.63511
3.67361
3.71386
3.74911
3.78437
3.82387
3.86337
3.89412
3.90937
3.91437
3.91362
3.90937
3.90262
3.89012
3.87387
3.85862
3.84787
3.84412
3.85212
3.87137
3.89737
3.93037
3.96787
4.00187
4.02487
4.03887
4.05087
4.06012
4.06637
4.07212
4.07312
4.07462
4.08312
4.09863
4.11813
4.14088
4.16463
4.18588
4.20763
4.22988
4.25113
4.26763
4.27813
4.28088
4.27638
4.27038
4.26338
4.25013
4.23663
4.22788
4.23488
4.24988
4.27138
4.29163
4.30638
4.31613
4.32188
4.31863
4.30788
4.29313
4.27513
4.25613
4.24088
4.21738
4.18113
4.13938
4.09987
4.06862
4.04637
4.02862
4.00962
3.99412
3.98187
3.96687
3.94537
3.91987
3.89237
3.85812
3.82087
3.78287
3.73811
3.69211
3.65261
3.62111
3.59611
3.57961
3.56911
3.55586
3.53986
3.52711
3.51711
3.50436
3.48486
3.45961
3.4291
3.39685
3.36335
3.31935
3.26785
3.2261
3.20635
3.1996
3.1966
3.1921
3.1881
3.18035
3.17335
3.1696
3.16285
3.1516
3.13435
3.11285
3.08859
3.06284
3.03509
3.00859
2.99184
2.98159
2.97459
2.97234
2.97459
2.97834
2.98384
2.99309
3.00009
3.00559
3.00634
3.00334
2.99834
2.99384
2.98934
2.98184
2.97009
2.95584
2.94509
2.93834
2.93959
2.94159
2.94034
2.93884
2.93659
2.93209
2.92434
2.91834
2.91684
2.92109
2.93084
2.94059
2.94184
2.93559
2.92684
2.91834
2.91584
2.91709
2.92059
2.92509
2.93409
2.94684
2.96209
2.97334
2.97959
2.97984
2.96934
2.95159
2.92534
2.89259
2.85859
2.84134
2.84159
2.85709
2.88484
2.91784
2.95134
2.98409
3.01809
3.04534
3.05784
3.06034
3.05234
3.03484
3.01284
2.98684
2.95684
2.93209
2.91459
2.90534
2.90459
2.91109
2.92084
2.93034
2.94259
2.95984
2.97734
2.99134
2.99909
2.99809
2.99059
2.97934
2.96584
2.94884
2.92959
2.91534
2.90534
2.90309
2.90834
2.91934
2.93784
2.96559
2.99559
3.02234
3.04184
3.05259
3.05359
3.04484
3.03509
3.01934
2.99384
2.97484
2.96609
2.96459
2.97559
2.99634
3.02184
3.04984
3.08384
3.1211
3.15085
3.17235
3.18235
3.1776
3.15835
3.12935
3.09509
3.05734
3.02609
3.00784
3.00234
3.00609
3.01759
3.03284
3.05534
3.08209
3.1116
3.1376
3.1626
3.1786
3.1846
3.17935
3.16335
3.1421
3.11685
3.09534
3.08009
3.07459
3.08134
3.09459
3.1086
3.12285
3.1396
3.1541
3.16135
3.1616
3.15585
3.1461
3.13735
3.1241
3.10459
3.08209
3.06659
3.05959
3.05709
3.05859
3.06784
3.08759
3.1161
3.1501
3.17685
3.1916
3.1976
3.1966
3.18685
3.17385
3.15735
3.1386
3.1146
3.09284
3.07834
3.07259
3.07834
3.08809
3.09959
3.1131
3.1311
3.1471
3.15985
3.1696
3.17235
3.1711
3.1651
3.15185
3.13235
3.11085
3.09584
3.08784
3.08909
3.10434
3.1281
3.15085
3.17135
3.19185
3.20585
3.2096
3.2066
3.1956
3.1791
3.1646
3.1531
3.13685
3.1186
3.10359
3.09209
3.08534
3.08134
3.08159
3.09009
3.10784
3.1296
3.14885
3.16085
3.16635
3.16385
3.1536
3.13785
3.1156
3.08609
3.05484
3.03059
3.01434
3.00909
3.01884
3.03759
3.05734
3.07434
3.08959
3.09959
3.10284
3.09759
3.09334
3.09259
3.09084
3.08859
3.08659
3.09009
3.09559
3.09784
3.09809
3.10284
3.1101
3.11985
3.1306
3.1441
3.1596
3.1711
3.17285
3.1661
3.1541
3.1376
3.1161
3.08584
3.05409
3.02909
3.01959
3.02634
3.04859
3.07934
3.1096
3.1366
3.1616
3.1786
3.1916
3.20035
3.19885
3.1886
3.1716
3.1481
3.1201
3.09934
3.08734
3.07834
3.07259
3.07584
3.08509
3.09734
3.11985
3.13885
3.1461
3.14885
3.1521
3.1536
3.1506
3.14685
3.1391
3.12835
3.1216
3.1151
3.10985
3.1096
3.1121
3.1176
3.12735
3.1446
3.1621
3.17635
3.18135
3.1786
3.16235
3.13735
3.1141
3.09034
3.07159
3.06234
3.06659
3.07709
3.09484
3.1156
3.13685
3.1586
3.1761
3.1866
3.1911
3.1946
3.19385
3.18535
3.16935
3.14935
3.13085
3.1221
3.11735
3.11085
3.10309
3.09834
3.10059
3.11185
3.13085
3.1536
3.17035
3.18135
3.1871
3.18635
3.1791
3.1711
3.16485
3.15935
3.15285
3.14985
3.14935
3.1501
3.15835
3.1686
3.17935
3.19135
3.20385
3.2121
3.2146
3.20835
3.1946
3.17935
3.1631
3.1436
3.12035
3.10259
3.09534
3.09709
3.10784
3.1241
3.14285
3.16435
3.1826
3.1976
3.2076
3.2136
3.2146
3.20635
3.1921
3.1776
3.1586
3.1371
3.12335
3.1191
3.11885
3.12185
3.1301
3.1406
3.15335
3.1726
3.1956
3.21135
3.2196
3.2231
3.2216
3.2121
3.19685
3.18435
3.16885
3.1506
3.1401
3.13835
3.1456
3.1566
3.1701
3.1856
3.20385
3.22185
3.2331
3.23785
3.23635
3.23185
3.2236
3.21035
3.19235
3.17335
3.15735
3.1441
3.13535
3.1336
3.14385
3.1626
3.1866
3.21435
3.2391
3.25485
3.25685
3.2436
3.22535
3.21635
3.2121
3.20335
3.1916
3.1796
3.17385
3.17585
3.18535
3.19735
3.20985
3.22585
3.2471
3.26435
3.2691
3.26285
3.25285
3.2406
3.2321
3.22835
3.21985
3.20335
3.18735
3.17935
3.17485
3.1756
3.17835
3.18385
3.1951
3.21835
3.24535
3.2641
3.2746
3.2781
3.27235
3.2586
3.2371
3.2111
3.1886
3.1761
3.17435
3.1821
3.1981
3.2156
3.23685
3.2626
3.28985
3.3101
3.31735
3.31235
3.29835
3.2841
3.2706
3.25285
3.2301
3.2116
3.20635
3.2126
