-0.012099
0.034413
0.078317
0.095434
0.136195
0.133482
0.139960
0.103645
0.073657
0.030812
-0.032892
-0.090064
-0.131058
-0.143152
-0.147695
-0.171116
-0.152426
-0.125527
-0.095165
-0.052368
-0.019085
0.002366
0.027985
0.074338
0.104734
0.110805
0.115852
0.092288
0.034992
0.006355
-0.055042
-0.102008
-0.069443
-0.105066
-0.140116
-0.148600
-0.116736
-0.076036
-0.035250
-0.020408
-0.003645
0.029937
0.069902
0.137522
0.153908
0.154183
0.143551
0.116526
0.104714
0.063014
-0.004062
-0.041109
-0.082298
-0.159932
-0.197174
-0.190176
-0.174387
-0.112965
-0.050458
-0.001577
0.014999
0.048348
0.090791
0.162011
0.184581
0.183152
0.177510
0.168534
0.124541
0.107921
0.051659
-0.008210
-0.052311
-0.082416
-0.104284
-0.114144
-0.092086
-0.074349
-0.045232
0.000493
0.027463
0.056959
0.105040
0.152935
0.181716
0.187369
0.170487
0.135844
0.100256
0.079824
0.053936
-0.002539
-0.037353
-0.060185
-0.077274
-0.083616
-0.087212
-0.044559
-0.002618
0.021882
0.070168
0.109921
0.184057
0.268085
0.279188
0.286022
0.259727
0.240895
0.175122
0.124818
0.077683
0.046059
-0.003779
-0.044074
-0.053067
-0.057018
-0.061524
-0.040536
-0.001018
0.027342
0.052973
0.104313
0.151744
0.189373
0.193087
0.201232
0.216207
0.182347
0.147014
0.121323
0.094930
0.017266
0.013260
-0.012397
-0.044873
-0.055227
-0.032177
-0.009905
0.001926
0.028455
0.072785
0.117205
0.151499
0.186597
0.201169
0.203602
0.165206
0.107257
0.057986
0.035989
0.021414
-0.035714
-0.080937
-0.106526
-0.132668
-0.127940
-0.134444
-0.102702
-0.057418
-0.002055
0.041674
0.072124
0.115650
0.153945
0.178587
0.166986
0.157263
0.122675
0.114404
0.067265
0.013290
-0.023480
-0.067729
-0.101146
-0.146191
-0.174239
-0.157480
-0.139232
-0.134155
-0.097113
-0.030689
0.016866
0.025910
0.059715
0.096594
0.112044
0.103871
0.064263
0.005450
-0.020152
-0.040808
-0.104401
-0.136880
-0.156982
-0.166734
-0.154123
-0.160940
-0.128659
-0.104397
-0.030629
0.018064
0.026493
0.048282
0.106328
0.120149
0.125185
0.099335
0.058229
0.019543
-0.017823
-0.073450
-0.126073
-0.157880
-0.186571
-0.205707
-0.219945
-0.219299
-0.188232
-0.188561
-0.155094
-0.068075
0.013288
0.065080
0.083148
0.113654
0.118514
0.124159
0.109827
0.057240
0.014442
-0.020026
-0.081652
-0.134209
-0.152922
-0.175456
-0.177122
-0.173791
-0.159248
-0.115373
-0.061572
-0.014450
0.013526
0.034362
0.062790
0.087986
0.108663
0.096547
0.052240
0.000693
-0.015724
-0.054976
-0.070887
-0.099154
-0.150578
-0.191618
-0.163936
-0.134423
-0.102025
-0.070030
-0.035371
-0.008427
0.055951
0.091020
0.122431
0.117789
0.113803
0.135678
0.114261
0.065231
0.010789
-0.036662
-0.088173
-0.124690
-0.155667
-0.189571
-0.205550
-0.198816
-0.171068
-0.125682
-0.090914
-0.059368
0.000164
0.044588
0.077075
0.093827
0.105571
0.085728
0.062649
0.066213
0.020785
-0.036255
-0.086287
-0.112162
-0.129746
-0.142464
-0.152995
-0.164856
-0.130844
-0.085333
-0.051645
-0.018963
0.025058
0.058011
0.088502
0.114243
0.108669
0.080167
0.053559
0.044124
0.000505
-0.044373
-0.107544
-0.136029
-0.148596
-0.159736
-0.189176
-0.187746
-0.110820
-0.077595
-0.069231
-0.026722
0.002438
0.027308
0.069205
0.114644
0.135046
0.123953
0.100544
0.034496
0.007871
-0.018517
-0.053646
-0.097754
-0.154546
-0.177894
-0.193821
-0.201471
-0.176904
-0.143112
-0.107078
-0.067041
-0.011140
0.025002
0.028152
0.064528
0.084090
0.066399
0.027882
0.016834
-0.017434
-0.067232
-0.093930
-0.136406
-0.186011
-0.193297
-0.188350
-0.198761
-0.149218
-0.113164
-0.063179
-0.044234
0.003806
0.058406
0.072587
0.106832
0.116274
0.086835
0.052881
0.014914
-0.017483
-0.076419
-0.118345
-0.160896
-0.194973
-0.220918
-0.232964
-0.230542
-0.182752
-0.126064
-0.089924
-0.048999
0.016062
0.065850
0.074385
0.090056
0.134508
0.154310
0.145281
0.102179
0.041039
0.005323
-0.052585
-0.115034
-0.142219
-0.153651
-0.157640
-0.168328
-0.148023
-0.119723
-0.071451
-0.019941
0.037873
0.068769
0.072909
0.082672
0.090223
0.091379
0.044198
0.016559
-0.025285
-0.051026
-0.095587
-0.146198
-0.138526
-0.176093
-0.166959
-0.146866
-0.112292
-0.071858
-0.039905
-0.009302
0.035818
0.074127
0.119826
0.154516
0.167406
0.138681
0.119233
0.063223
0.032183
-0.010909
-0.061935
-0.112570
-0.153729
-0.178205
-0.192886
-0.201802
-0.170892
-0.125388
-0.093056
-0.072599
-0.052822
-0.024258
0.032899
0.068189
0.070016
0.074472
0.041498
0.016321
-0.019107
-0.076079
-0.131357
-0.189094
-0.188077
-0.172296
-0.182746
-0.171275
-0.173270
-0.171403
-0.150149
-0.033252
0.007910
0.059151
0.085985
0.071759
0.078260
0.075490
0.037239
-0.004169
-0.042527
-0.097407
-0.128541
-0.199283
-0.249898
-0.281096
-0.275441
-0.275643
-0.250139
-0.197064
-0.153794
-0.108873
-0.046964
0.004543
0.023755
0.018348
0.061992
0.062016
0.046397
0.017077
-0.019221
-0.074178
-0.131714
-0.179568
-0.194726
-0.216373
-0.238709
-0.236081
-0.206821
-0.200952
-0.145485
-0.106971
-0.056824
-0.019060
0.017263
0.027030
0.040345
0.047772
0.021130
-0.035954
-0.095090
-0.147778
-0.176300
-0.210402
-0.235000
-0.271331
-0.263178
-0.251040
-0.219968
-0.172897
-0.139297
-0.101890
-0.021940
0.036185
0.044506
0.060077
0.063605
0.035134
0.003718
-0.036295
-0.028519
-0.097542
-0.127899
-0.142364
-0.210226
-0.205108
-0.196911
-0.173593
-0.134270
-0.109488
-0.022961
0.029774
0.074327
0.103135
0.164422
0.224012
0.270552
0.293810
0.280628
0.282031
0.281804
0.260170
0.251052
0.254436
0.257668
0.281540
0.299627
0.332638
0.385875
0.472419
0.562447
0.630341
0.712795
0.802378
0.856711
0.884230
0.866011
0.841696
0.793164
0.745345
0.666608
0.597878
0.538298
0.467343
0.354728
0.279358
0.211316
0.161712
0.131680
0.124172
0.114515
0.122467
0.137218
0.185574
0.217448
0.226138
0.228649
0.208736
0.184815
0.160353
0.096660
0.023281
-0.028383
-0.062365
-0.093084
-0.143435
-0.155596
-0.140723
-0.115902
-0.108797
-0.070057
-0.038197
-0.017834
0.013814
0.057397
0.128476
0.141757
0.106808
0.066962
0.039684
-0.007721
-0.043766
-0.101985
-0.155054
-0.185026
-0.208779
-0.194069
-0.176439
-0.167626
-0.161418
-0.123112
-0.060610
0.020531
0.065091
0.072768
0.109496
0.134591
0.094693
0.067035
0.037519
-0.010780
-0.055863
-0.106443
-0.155061
-0.202049
-0.220459
-0.234851
-0.224220
-0.192499
-0.152470
-0.116984
-0.049114
-0.017870
0.021626
0.080034
0.101680
0.114125
0.095441
0.058021
0.036964
0.000654
-0.052089
-0.070728
-0.130846
-0.173845
-0.203028
-0.183401
-0.179194
-0.125052
-0.097627
-0.071402
-0.040345
0.013015
0.045374
0.060415
0.078885
0.100523
0.105573
0.066756
0.019461
0.004346
-0.044662
-0.083839
-0.118182
-0.165848
-0.196320
-0.168417
-0.139668
-0.122668
-0.095944
-0.055014
0.006239
0.053163
0.083434
0.116815
0.146491
0.173657
0.166357
0.137422
0.092932
0.046487
0.006077
-0.048300
-0.101649
-0.125563
-0.141659
-0.129954
-0.136642
-0.142760
-0.120298
-0.055197
-0.003101
0.040251
0.088076
0.133254
0.151226
0.159677
0.153797
0.138338
0.098914
0.072359
0.023130
-0.003012
-0.014767
-0.046404
-0.073156
-0.125862
-0.112145
-0.062430
-0.012478
0.030532
0.083897
0.122572
0.153151
0.188145
0.210265
0.194588
0.165456
0.166981
0.146585
0.085087
0.025475
-0.008981
-0.038899
-0.061528
-0.089593
-0.098315
-0.089827
-0.065408
-0.022583
0.027631
0.070732
0.104515
0.146013
0.185896
0.200588
0.220499
0.212645
0.187499
0.171957
0.132559
0.078770
0.023309
-0.021225
-0.045904
-0.068214
-0.070598
-0.085089
-0.084871
-0.060695
-0.032886
0.015887
0.083161
0.137705
0.164627
0.164802
0.181569
0.174948
0.151275
0.117396
0.073175
0.031919
0.005218
-0.038567
-0.069409
-0.085412
-0.109740
-0.117648
-0.101931
-0.050781
0.017850
0.057055
0.104306
0.129377
0.134369
0.154134
0.129498
0.128502
0.104666
0.072749
0.026297
-0.040565
-0.079895
-0.121728
-0.145098
-0.158700
-0.162172
-0.163989
-0.144563
-0.108249
-0.064302
-0.022544
0.028242
0.061814
0.088656
0.135707
0.143623
0.131784
0.109516
0.079397
0.027439
-0.007005
-0.072424
-0.114431
-0.147290
-0.171185
-0.187117
-0.181027
-0.163455
-0.127930
-0.080569
-0.034485
0.007702
0.048629
0.072249
0.068193
0.066202
0.060202
0.040369
0.011387
-0.011732
-0.050670
-0.104563
-0.157942
-0.184930
-0.192907
-0.189115
-0.173751
-0.150181
-0.126061
-0.080559
-0.017878
0.001922
0.051011
0.116033
0.129225
0.107415
0.095918
0.077190
0.025694
-0.016552
-0.059819
-0.103773
-0.143888
-0.180007
-0.210038
-0.211033
-0.200448
-0.191696
-0.143087
-0.097064
-0.053163
-0.003989
0.038633
0.077250
0.107670
0.122649
0.124932
0.098522
0.051268
0.017156
-0.033970
-0.087800
-0.127372
-0.154499
-0.168141
-0.191278
-0.195180
-0.151750
-0.119136
-0.061978
-0.011327
0.016019
0.048005
0.097657
0.112765
0.115340
0.104550
0.079972
0.021963
-0.022924
-0.070498
-0.103235
-0.134225
-0.158215
-0.198124
-0.204383
-0.197410
-0.155205
-0.119091
-0.072009
-0.004482
0.053880
0.102013
0.130903
0.142226
0.137881
0.121733
0.081264
0.052328
0.036680
-0.042595
-0.100819
-0.131772
-0.173766
-0.209426
-0.210774
-0.183624
-0.192252
-0.135349
-0.047851
-0.032389
0.005860
0.056972
0.086752
0.097129
0.116692
0.114392
0.083305
0.042776
0.005079
-0.010768
-0.058575
-0.117456
-0.147735
-0.178686
-0.166674
-0.164819
-0.133881
-0.103561
-0.066435
-0.025113
0.010233
0.030244
0.062990
0.110774
0.117061
0.080455
0.036462
0.003173
-0.048394
-0.070862
-0.119535
-0.165591
-0.177621
-0.192963
-0.191506
-0.187644
-0.168954
-0.129033
-0.089209
-0.045331
0.032346
0.083666
0.111946
0.124180
0.125614
0.117965
0.084211
0.053202
0.001869
-0.046791
-0.092522
-0.137449
-0.182641
-0.196563
-0.200501
-0.190455
-0.172693
-0.144169
-0.109093
-0.067945
-0.020063
0.026033
0.053297
0.072507
0.083595
0.078254
0.064713
0.026821
-0.010062
-0.052984
-0.106961
-0.143204
-0.163492
-0.199468
-0.201679
-0.164648
-0.141458
-0.114579
-0.063103
-0.032848
-0.012803
0.048156
0.078931
0.089914
0.087942
0.084162
0.050383
0.003702
-0.030450
-0.067929
-0.090418
-0.101273
-0.160733
-0.220674
-0.221525
-0.214144
-0.190947
-0.130278
-0.115945
-0.032594
0.036461
0.072270
0.105779
0.122962
0.143387
0.128929
0.101416
0.104386
0.039639
-0.019980
-0.061611
-0.108690
-0.137662
-0.163763
-0.162156
-0.145531
-0.106732
-0.099660
-0.082126
-0.023305
0.017192
0.034461
0.067683
0.104079
0.116291
0.094251
0.059997
0.050834
0.022234
0.002328
-0.050956
-0.096894
-0.100943
-0.129051
-0.138751
-0.117068
-0.086501
-0.048455
-0.021805
0.020649
0.063404
0.104809
0.144057
0.155615
0.149014
0.131615
0.101771
0.069930
0.032814
-0.035850
-0.081034
-0.126392
-0.155387
-0.183823
-0.210736
-0.219846
-0.199620
-0.144114
-0.059063
-0.037487
-0.014328
0.046718
0.096048
0.109901
0.102260
0.090203
0.078130
0.053024
0.021389
-0.029035
-0.087118
-0.148682
-0.179021
-0.195930
-0.198000
-0.195374
-0.179610
-0.151923
-0.130483
-0.073493
-0.034745
-0.022062
0.048239
0.074811
0.092297
0.055634
0.021625
-0.022763
-0.042313
-0.078120
-0.113094
-0.154376
-0.201994
-0.222772
-0.200730
-0.194873
-0.192405
-0.160244
-0.100782
-0.050026
-0.015189
0.017324
0.043782
0.069960
0.076234
0.053136
0.018611
-0.011224
-0.052901
-0.096088
-0.128886
-0.168316
-0.204206
-0.248998
-0.255846
-0.246107
-0.209780
-0.177034
-0.157668
-0.112293
-0.051818
0.023976
0.043615
0.055154
0.100972
0.084504
0.049692
0.026774
-0.001120
-0.050628
-0.117362
-0.170191
-0.194283
-0.219596
-0.218350
-0.218072
-0.198706
-0.178375
-0.152839
-0.095838
-0.023668
-0.002486
0.021019
0.051687
0.048247
0.021800
0.011998
-0.017970
-0.074599
-0.125070
-0.171552
-0.168177
-0.187858
-0.207584
-0.201575
-0.201189
-0.154348
-0.066938
0.001820
0.066225
0.109788
0.145597
0.193240
0.224812
0.247565
0.256405
0.235283
0.227890
0.200943
0.185310
0.163214
0.140502
0.174280
0.212684
0.229046
0.266907
0.314361
0.355223
0.429024
0.527516
0.610924
0.669123
0.789107
0.858803
0.873541
0.859958
0.812715
0.828980
0.770661
0.711626
0.633779
0.594513
0.545075
0.465045
0.385661
0.317492
0.281312
0.270636
0.276491
0.250829
0.234174
0.219443
0.227196
0.228273
0.227492
0.236691
0.202932
0.141571
0.103306
0.060710
-0.013349
-0.073273
-0.119594
-0.110512
-0.119472
-0.126681
-0.110996
-0.065750
-0.031154
0.005303
0.066424
0.126572
0.129658
0.148970
0.143160
0.116163
0.086407
0.058245
0.005814
-0.008884
-0.025522
-0.090987
-0.154997
-0.200605
-0.200760
-0.173305
-0.158454
-0.133326
-0.101787
-0.048876
-0.009090
0.016080
0.050907
0.077661
0.077402
0.072423
0.060710
0.043881
0.006452
-0.046636
-0.090615
-0.145273
-0.166898
-0.170409
-0.179888
-0.178704
-0.154933
-0.140758
-0.066126
-0.020364
-0.007815
0.032901
0.080614
0.117471
0.093389
0.086147
0.058086
0.016631
-0.023868
-0.040668
-0.099397
-0.148213
-0.172819
-0.181737
-0.205238
-0.212689
-0.176517
-0.119695
-0.037445
-0.006939
0.021617
0.059342
0.100570
0.128078
0.133815
0.117629
0.099695
0.070213
0.039043
-0.012127
-0.049492
-0.080376
-0.105152
-0.137912
-0.174678
-0.164520
-0.145829
-0.111702
-0.058235
-0.022691
0.028401
0.071747
0.105715
0.131466
0.136768
0.110657
0.089553
0.062052
0.030496
0.000947
-0.034688
-0.077425
-0.112433
-0.126061
-0.140697
-0.120709
-0.094722
-0.055842
-0.016420
0.030651
0.080904
0.129726
0.150397
0.177883
0.171160
0.154842
0.137646
0.127682
0.082358
0.030138
0.005899
-0.074020
-0.133739
-0.131348
-0.122953
-0.109338
-0.093326
-0.057865
0.026437
0.060457
0.114017
0.145334
0.183249
0.210759
0.220139
0.207359
0.194848
0.155520
0.100473
0.038874
0.022019
-0.024660
-0.077143
-0.074724
-0.078403
-0.077817
-0.064093
-0.031029
0.056420
0.106112
0.120610
0.154819
0.186710
0.200007
0.194320
0.196158
0.165826
0.126652
0.076280
0.033568
-0.001133
-0.031192
-0.051706
-0.071310
-0.086961
-0.059274
-0.029183
-0.012478
0.046181
0.074175
0.107290
0.152479
0.190418
0.226681
0.230208
0.194775
0.176875
0.139292
0.081632
0.023569
-0.035559
-0.064504
-0.085900
-0.133919
-0.148097
-0.147965
-0.102186
-0.060301
-0.023998
0.021666
0.094325
0.149353
0.148919
0.160428
0.144948
0.147499
0.122568
0.098591
0.057688
0.017781
-0.030659
-0.080040
-0.109689
-0.126031
-0.144182
-0.150298
-0.121294
-0.094456
-0.043542
0.008964
0.015385
0.064320
0.112702
0.124008
0.111562
0.110454
0.077116
0.028852
-0.023566
-0.047139
-0.075417
-0.120083
-0.158446
-0.180882
-0.183902
-0.166079
-0.152944
-0.119020
-0.099339
-0.040747
0.029048
0.070341
0.096555
0.122461
0.115175
0.128294
0.106262
0.076924
0.035630
-0.021201
-0.083779
-0.150837
-0.197808
-0.204384
-0.230531
-0.218239
-0.170131
-0.117294
-0.084741
-0.061517
-0.021551
0.030452
0.068469
0.099413
0.068773
0.084461
0.082963
0.041103
-0.001181
-0.038785
-0.079548
-0.130977
-0.147128
-0.181861
-0.199423
-0.171057
-0.145446
-0.111978
-0.067622
-0.017505
0.005350
0.031994
0.079777
0.102163
0.115535
0.124304
0.081180
0.050547
-0.003763
-0.044799
-0.108464
-0.154963
-0.174803
-0.211014
-0.210662
-0.187662
-0.173336
-0.156316
-0.095388
-0.026404
0.003060
0.085529
0.120867
0.131758
0.128332
0.111441
0.087153
0.049504
0.024310
-0.012611
-0.060180
-0.109274
-0.155758
-0.182390
-0.187470
-0.165219
-0.154655
-0.123617
-0.085956
-0.040098
0.001042
0.031457
0.064262
0.085741
0.080481
0.074948
0.059152
0.021197
-0.002495
-0.045926
-0.087778
-0.115121
-0.145084
-0.166762
-0.167627
-0.159682
-0.145746
-0.107987
-0.078146
-0.032796
0.011527
0.071599
0.108125
0.128531
0.117526
0.090091
0.069206
0.036928
-0.014008
-0.063897
-0.119313
-0.149110
-0.195494
-0.215064
-0.217187
-0.196819
-0.182476
-0.142830
-0.126027
-0.053004
0.031369
0.096994
0.100077
0.115257
0.127223
0.116943
0.085072
0.046932
0.004596
-0.041921
-0.098607
-0.123460
-0.134359
-0.178644
-0.198852
-0.173996
-0.161510
-0.157619
-0.096027
-0.056247
-0.009704
0.043486
0.093418
0.124843
0.097203
0.071189
0.045771
0.016682
-0.026863
-0.083668
-0.127899
-0.154723
-0.188588
-0.221814
-0.210420
-0.192589
-0.182455
-0.131251
-0.082279
-0.030349
-0.002607
0.044916
0.082212
0.102241
0.117083
0.098493
0.083073
0.037224
-0.021000
-0.067149
-0.109396
-0.140432
-0.176975
-0.214210
-0.221018
-0.231236
-0.231717
-0.182521
-0.097364
-0.031329
0.028100
0.042451
0.034414
0.027614
0.053341
0.071073
0.049334
0.023786
-0.017787
-0.064413
-0.070284
-0.128703
-0.180954
-0.218575
-0.215582
-0.210873
-0.163275
-0.124891
-0.110061
-0.073655
-0.020825
0.031586
0.069407
0.101417
0.070147
0.082223
0.061225
0.037269
-0.027436
-0.082188
-0.142699
-0.196839
-0.205534
-0.213628
-0.203348
-0.192162
-0.171236
-0.109575
-0.070289
-0.023070
0.010813
0.043017
0.074055
0.105245
0.109236
0.119111
0.103934
0.052736
0.014208
-0.041505
-0.075468
-0.117860
-0.141902
-0.166110
-0.183602
-0.184522
-0.166536
-0.127620
-0.098102
-0.064618
-0.013035
0.025063
0.077946
0.122122
0.127182
0.111548
0.092349
0.045712
0.019386
-0.050425
-0.062175
-0.132649
-0.157056
-0.138352
-0.115332
-0.113098
-0.107970
-0.095544
-0.058648
0.003948
0.056210
0.110468
0.140029
0.136083
0.143703
0.138123
0.127175
0.082710
0.030402
-0.024937
-0.085756
-0.139871
-0.171620
-0.204893
-0.217403
-0.218574
-0.184138
-0.149007
-0.095753
-0.022575
0.032363
0.045113
0.065075
0.083619
0.113081
0.107756
0.082758
0.017158
0.027624
-0.007898
-0.089525
-0.118414
-0.169074
-0.213212
-0.221700
-0.208018
-0.197595
-0.162610
-0.127663
-0.081742
-0.045967
-0.009721
0.029405
0.059838
0.058238
0.023374
0.000031
-0.027334
-0.065402
-0.103779
-0.136936
-0.160212
-0.198920
-0.225262
-0.224856
-0.173390
-0.155470
-0.149767
-0.121193
-0.080729
-0.023044
0.007364
0.025380
0.078034
0.074052
0.059206
0.028573
-0.013152
-0.078342
-0.135542
-0.175798
-0.201428
-0.234311
-0.271031
-0.259654
-0.243346
-0.209499
-0.166219
-0.124610
-0.070439
-0.033134
-0.000670
0.038186
0.058176
0.065338
0.055390
0.037301
0.011374
-0.032464
-0.080423
-0.123713
-0.160439
-0.197431
-0.223219
-0.245934
-0.237473
-0.208023
-0.170677
-0.132402
-0.084424
-0.047448
-0.004286
0.018558
0.027181
0.026107
0.001386
0.006579
-0.017772
-0.072088
-0.114899
-0.153338
-0.199817
-0.239517
-0.256472
-0.249026
-0.216835
-0.205824
-0.166322
-0.100026
-0.048256
-0.001341
0.052250
0.107979
0.150797
0.185982
0.160259
0.154923
0.122398
0.091435
0.060851
0.050997
0.041891
0.018235
-0.010704
0.013405
0.064904
0.140196
0.199986
0.228382
0.363623
0.460078
0.506729
0.549473
0.624645
0.671392
0.712771
0.714248
0.726290
0.721055
0.702836
0.676055
0.646552
0.577010
0.539526
0.516015
0.520584
0.546841
0.549635
0.556671
0.511912
0.482756
0.490733
0.443765
0.420110
0.365254
0.294492
0.226342
0.182862
0.140735
0.070644
0.021143
-0.042898
-0.086791
-0.116949
-0.129197
-0.099046
-0.091427
-0.058159
-0.029219
0.004939
0.051771
0.100946
0.127874
0.162683
0.156087
0.142638
0.118745
0.072431
0.017200
-0.037042
-0.074096
-0.126753
-0.158823
-0.169575
-0.199865
-0.205636
-0.180009
-0.151668
-0.110925
-0.070592
-0.029485
0.010889
0.023712
0.093657
0.084165
0.083242
0.046577
0.017506
-0.029017
-0.078917
-0.107407
-0.115028
-0.150798
-0.159226
-0.167934
-0.173454
-0.145247
-0.130516
-0.121132
-0.072325
-0.004202
0.043851
0.064866
0.080204
0.102473
0.088113
0.067702
0.020925
-0.034400
-0.087218
-0.130974
-0.168579
-0.201894
-0.227695
-0.223940
-0.221768
-0.196639
-0.147730
-0.112775
-0.065616
0.027169
0.056334
0.069000
0.101585
0.110026
0.110819
0.091631
0.039902
0.014654
-0.036140
-0.101567
-0.140385
-0.158975
-0.176161
-0.178127
-0.171875
-0.161338
-0.127429
-0.100657
-0.056536
-0.013342
0.030109
0.094031
0.125552
0.120823
0.071730
0.041640
0.026967
0.014218
-0.027845
-0.067110
-0.132422
-0.176998
-0.187176
-0.165727
-0.129511
-0.100981
-0.056490
-0.022747
0.005087
0.034698
0.092369
0.118774
0.128351
0.140182
0.168866
0.146440
0.062867
0.064414
0.006467
-0.055510
-0.099710
-0.123772
-0.129520
-0.160853
-0.146315
-0.154503
-0.119524
-0.063783
-0.032417
0.081306
0.126282
0.155244
0.183867
0.204379
0.203771
0.152499
0.126910
0.094007
0.049672
0.007533
-0.030233
-0.084933
-0.115322
-0.110862
-0.103735
-0.084094
-0.045654
-0.006874
0.044086
0.075119
0.116944
0.142051
0.162129
0.169108
0.169446
0.119405
0.080524
0.037573
0.016255
-0.019950
-0.036737
-0.091575
-0.108847
-0.105924
-0.088277
-0.089516
-0.043568
-0.007047
0.046835
0.089697
0.130797
0.173984
0.189329
0.172308
0.164227
0.143361
0.108705
0.060164
0.007548
-0.032894
-0.068237
-0.118125
-0.162976
-0.180615
-0.186301
-0.178412
-0.127417
-0.076706
-0.025251
0.041410
0.059269
0.096791
0.147480
0.169660
0.124952
0.127370
0.091701
0.041520
-0.009285
-0.054237
-0.083294
-0.113490
-0.152267
-0.156039
-0.136586
-0.122956
-0.101521
-0.058396
-0.029053
0.019064
0.048381
0.045205
0.067433
0.095776
0.084009
0.050715
0.008151
-0.043210
-0.081195
-0.128410
-0.163381
-0.185390
-0.216459
-0.230946
-0.201177
-0.168688
-0.132759
-0.082264
-0.018234
-0.006727
0.023629
0.067676
0.075486
0.084248
0.083547
0.059139
0.025380
-0.029194
-0.077363
-0.129586
-0.173569
-0.214882
-0.240456
-0.242876
-0.237044
-0.227439
-0.186286
-0.152276
-0.117374
-0.079649
-0.052972
0.005395
0.046181
0.047847
0.041650
0.009805
-0.001604
-0.018862
-0.055885
-0.135143
-0.170263
-0.193671
-0.202692
-0.180061
-0.191873
-0.207539
-0.165238
-0.101580
-0.020863
-0.008561
-0.000044
0.005356
0.043716
0.049175
0.042288
0.020989
-0.013832
-0.069511
-0.094396
-0.140122
-0.184891
-0.231589
-0.253859
-0.260024
-0.238627
-0.218555
-0.169195
-0.120159
-0.078984
-0.034718
0.010271
0.072878
0.087276
0.078564
0.089356
0.047425
0.026463
-0.000982
-0.039647
-0.109637
-0.162833
-0.186982
-0.209928
-0.223491
-0.210703
-0.214222
-0.172102
-0.137844
-0.096187
-0.059179
-0.018024
0.024225
0.053232
0.060854
0.076607
0.041740
-0.014657
-0.038104
-0.090632
-0.106571
-0.138259
-0.198059
-0.223006
-0.217222
-0.214289
-0.178583
-0.120876
-0.073429
-0.026153
0.011539
0.044178
0.069371
0.072888
0.077926
0.054985
0.049368
0.009783
-0.036064
-0.076407
-0.145314
-0.209215
-0.215172
-0.242074
-0.238033
-0.222250
-0.203552
-0.162990
-0.132279
-0.092098
-0.061205
-0.017750
0.049416
0.069649
0.079117
0.073336
0.080728
0.037118
-0.021800
-0.081060
-0.106569
-0.145950
-0.186839
-0.210868
-0.215916
-0.188184
-0.208346
-0.162348
-0.143302
-0.088138
-0.042254
-0.011782
0.012076
0.036686
0.029936
0.014432
0.004154
-0.029232
-0.088430
-0.122285
-0.153376
-0.184598
-0.203496
-0.240447
-0.268034
-0.219312
-0.182215
-0.142220
-0.109076
-0.068291
-0.002444
0.043797
0.071349
0.091995
0.092787
0.063056
0.045364
0.002102
-0.060726
-0.114940
-0.143834
-0.191824
-0.237876
-0.259909
-0.266328
-0.260307
-0.233230
-0.199075
-0.151506
-0.104328
-0.055601
-0.031349
0.006827
0.038189
0.077804
0.080870
0.071124
0.012095
-0.035893
-0.086992
-0.134052
-0.174428
-0.194000
-0.214643
-0.222363
-0.178684
-0.180214
-0.153130
-0.116497
-0.078286
-0.043832
-0.011905
0.018344
0.025696
0.019740
0.009015
0.019041
-0.007847
-0.079777
-0.167939
-0.165333
-0.161258
-0.206176
-0.226299
-0.238724
-0.224993
-0.188298
-0.142806
-0.119562
-0.080040
-0.009459
0.014941
0.042461
0.092994
0.095194
0.096982
0.066761
-0.004461
-0.059424
-0.085222
-0.099410
-0.134891
-0.171002
-0.184080
-0.215641
-0.243919
-0.203290
-0.160522
-0.124441
-0.068570
-0.003573
0.018050
0.053296
0.081509
0.097849
0.087418
0.073103
0.056830
0.012503
-0.026379
-0.088173
-0.129229
-0.169791
-0.186560
-0.181386
-0.159590
-0.120351
-0.098460
-0.071421
-0.030091
0.031114
0.068927
0.104657
0.110518
0.130380
0.102956
0.071262
0.022591
0.004512
-0.052334
-0.090850
-0.102455
-0.139263
-0.175127
-0.184069
-0.140592
-0.108925
-0.118674
-0.090508
-0.054781
0.008562
0.054645
0.088537
0.118254
0.138312
0.115352
0.074466
0.028202
0.000249
-0.038440
-0.088479
-0.147216
-0.193674
-0.220072
-0.226759
-0.219403
-0.202187
-0.177289
-0.139285
-0.097520
-0.059885
-0.012199
0.014347
0.071851
0.099661
0.066926
0.015594
-0.014192
-0.049962
-0.096578
-0.143113
-0.182235
-0.207376
-0.237704
-0.214275
-0.189060
-0.169330
-0.160408
-0.111188
-0.072792
-0.037652
-0.007870
0.018096
0.039382
0.045526
0.020431
-0.002657
-0.045856
-0.073196
-0.118599
-0.181725
-0.223422
-0.263138
-0.291677
-0.303175
-0.291159
-0.239536
-0.192459
-0.137952
-0.101965
-0.001841
0.071727
0.079988
0.077285
0.046519
0.050930
0.050172
0.011830
-0.045703
-0.094835
-0.140382
-0.195242
-0.225488
-0.238744
-0.247422
-0.243861
-0.225185
-0.187075
-0.151602
-0.107862
-0.089783
-0.037828
-0.007684
0.000726
0.013757
-0.005739
-0.013395
-0.043175
-0.077688
-0.125882
-0.179466
-0.228458
-0.254803
-0.272216
-0.287890
-0.259840
-0.237273
-0.204923
-0.141684
-0.077578
-0.027431
0.012638
0.029046
0.032386
0.075215
0.083090
0.065073
0.038794
0.030115
-0.019828
-0.042203
-0.077528
-0.129815
-0.157307
-0.148057
-0.086823
-0.026773
0.034468
0.096296
0.161568
0.202563
0.290685
0.357684
0.418164
0.455330
0.505690
0.537783
0.532542
0.528534
0.548464
0.550838
0.507050
0.532217
0.531808
0.549425
0.577531
0.597527
0.615868
0.644719
0.674048
0.730219
0.725004
0.733516
0.693309
0.625530
0.550571
0.468613
0.402187
0.302757
0.184688
0.075044
0.022303
-0.025122
-0.058583
-0.080145
-0.076908
-0.057999
-0.030130
0.005707
0.030774
0.081731
0.130884
0.166948
0.164008
0.176129
0.158298
0.141359
0.112589
0.048525
-0.022285
-0.070525
-0.101603
-0.145440
-0.175810
-0.189886
-0.194782
-0.187261
-0.141926
-0.114999
-0.064539
-0.028106
0.022686
0.040254
0.064169
0.066870
0.055742
0.021326
-0.036002
-0.040968
-0.071660
-0.095009
-0.129509
-0.159071
-0.165315
-0.167735
-0.171878
-0.155739
-0.116853
-0.078296
-0.023997
0.010774
0.034873
0.074355
0.094092
0.090419
0.070850
0.050915
0.012474
-0.049990
-0.102110
-0.168665
-0.172810
-0.191968
-0.222924
-0.238259
-0.213175
-0.164114
-0.130170
-0.109093
-0.068849
-0.015558
0.029654
0.067023
0.073276
0.088704
0.107169
0.093884
0.075766
0.006287
-0.049221
-0.102112
-0.107182
-0.137612
-0.165691
-0.190172
-0.169735
-0.145471
-0.097995
-0.071632
-0.044637
-0.014711
0.013751
0.056906
0.088335
0.106261
0.085968
0.086151
0.058585
-0.003971
-0.063946
-0.112973
-0.151183
-0.152610
-0.135268
-0.156208
-0.147156
-0.134347
-0.090628
-0.048256
-0.024486
0.037018
0.067830
0.123595
0.163456
0.171547
0.173230
0.125693
0.075601
0.010724
-0.019263
-0.025259
-0.067981
-0.117640
-0.156669
-0.152413
-0.131568
-0.109799
-0.095758
-0.060066
0.009665
0.076821
0.109135
0.140547
0.162132
0.184367
0.197038
0.172138
0.129574
0.111163
0.065781
-0.003058
-0.042179
-0.077901
-0.090096
-0.083392
-0.066268
-0.041345
-0.031444
0.015983
0.051294
0.097920
0.137940
0.169823
0.186906
0.190078
0.166504
0.139540
0.115894
0.101187
0.068460
-0.004927
-0.067748
-0.075962
-0.094546
-0.086785
-0.077462
-0.064015
-0.032427
0.022203
0.077647
0.112180
0.170212
0.190870
0.206448
0.210293
0.193209
0.173446
0.128525
0.072347
0.044851
0.007195
-0.034219
-0.068047
-0.092405
-0.127849
-0.120875
-0.124230
-0.087496
-0.038825
0.027718
0.062479
0.101581
0.150102
0.180077
0.184951
0.178913
0.155150
0.125527
0.067355
0.006563
-0.050158
-0.063721
-0.100942
-0.102615
-0.118044
-0.103296
-0.082764
-0.037032
0.015512
0.038422
0.063293
0.098194
0.122813
0.125162
0.155714
0.132336
0.096925
0.056679
0.011579
-0.031530
-0.070674
-0.124231
-0.158716
-0.173211
-0.194243
-0.184171
-0.157439
-0.106876
-0.045853
0.007409
0.033800
0.057450
0.111917
0.129394
0.138727
0.131042
0.119247
0.065614
0.008221
-0.034028
-0.082280
-0.118975
-0.183175
-0.212977
-0.212893
-0.206668
-0.191016
-0.179670
-0.127539
-0.073195
0.002696
0.032663
0.073688
0.105807
0.113525
0.086600
0.071936
0.025843
-0.021183
-0.060222
-0.087742
-0.126070
-0.130607
-0.156251
-0.174495
-0.169447
-0.145263
-0.103126
-0.060060
-0.031106
0.022192
0.066833
0.081811
0.061515
0.082153
0.079060
0.062739
0.008533
-0.023957
-0.063966
-0.101854
-0.130912
-0.145590
-0.205830
-0.186987
-0.198211
-0.182565
-0.131490
-0.101422
-0.052343
0.022878
0.060452
0.105775
0.133478
0.150593
0.130454
0.099647
0.058962
0.032989
-0.025010
-0.073739
-0.122344
-0.167954
-0.193484
-0.195644
-0.189665
-0.154834
-0.118088
-0.099644
-0.047773
-0.011955
0.027689
0.060383
0.082891
0.087021
0.076782
0.067911
0.036872
-0.006449
-0.035821
-0.078363
-0.115434
-0.154856
-0.169638
-0.182560
-0.182193
-0.162803
-0.108771
-0.068154
-0.010723
0.024743
0.079344
0.120791
0.138353
0.129360
0.104491
0.096208
0.038842
-0.023299
-0.056725
-0.088951
-0.123415
-0.174490
-0.204481
-0.216135
-0.212138
-0.173052
-0.135426
-0.094237
-0.044061
0.024641
0.041837
0.081776
0.122534
0.115339
0.088222
0.099079
0.063376
0.046730
-0.037922
-0.093573
-0.122301
-0.136214
-0.159051
-0.171051
-0.179337
-0.148070
-0.110683
-0.097904
-0.042505
0.026927
0.051896
0.073195
0.092429
0.099762
0.063070
0.041947
0.027998
-0.041180
-0.105291
-0.109177
-0.119476
-0.150202
-0.183097
-0.187088
-0.187179
-0.165646
-0.131443
-0.076427
-0.016118
0.025893
0.052097
0.091304
0.106689
0.107405
0.092097
0.075983
0.041264
-0.018031
-0.060461
-0.102186
-0.144945
-0.180141
-0.191122
-0.227971
-0.230501
-0.210618
-0.166096
-0.122922
-0.077529
-0.028593
0.017056
0.057780
0.096773
0.120324
0.088010
0.056854
0.039560
0.003699
-0.061914
-0.104644
-0.117128
-0.144449
-0.174393
-0.191100
-0.191876
-0.165219
-0.143098
-0.113652
-0.055752
0.017332
0.051151
0.055832
0.073629
0.077064
0.068684
0.040542
0.007846
-0.042399
-0.087411
-0.118496
-0.149073
-0.186555
-0.216506
-0.200421
-0.190214
-0.181666
-0.139062
-0.061287
0.000385
0.038627
0.077738
0.111383
0.135646
0.146903
0.121488
0.104994
0.063634
0.018964
-0.032735
-0.083249
-0.122533
-0.160258
-0.156015
-0.170299
-0.191435
-0.146000
-0.143656
-0.076281
-0.023854
0.014898
0.056573
0.090087
0.113784
0.130995
0.129436
0.098634
0.071740
0.029042
-0.013882
-0.067517
-0.108226
-0.145561
-0.150215
-0.159982
-0.163027
-0.136857
-0.068648
0.008846
0.036934
0.079623
0.094467
0.117881
0.123119
0.138718
0.136907
0.107457
0.065980
0.033715
-0.018464
-0.068120
-0.117591
-0.157828
-0.183311
-0.190572
-0.167434
-0.152541
-0.118272
-0.071651
-0.021537
0.041455
0.093259
0.105045
0.103751
0.147300
0.140977
0.104125
0.074332
0.043625
-0.030407
-0.075124
-0.112249
-0.161037
-0.192323
-0.203029
-0.206524
-0.193030
-0.172681
-0.151679
-0.087180
-0.047229
0.005447
0.025778
0.036819
0.086164
0.080346
0.048766
0.043856
-0.001771
-0.069639
-0.122970
-0.154987
-0.192886
-0.211670
-0.212773
-0.200424
-0.177901
-0.158359
-0.103103
-0.055828
-0.012424
0.015904
0.055431
0.071217
0.075244
0.059456
0.009639
-0.037357
-0.038802
-0.098146
-0.112812
-0.139731
-0.213049
-0.251211
-0.255389
-0.244224
-0.213615
-0.178463
-0.129752
-0.072229
-0.020058
0.025711
0.070809
0.089434
0.098303
0.084670
0.061697
0.014569
-0.015715
-0.068215
-0.124364
-0.165968
-0.194482
-0.210125
-0.222260
-0.203081
-0.207971
-0.180870
-0.150627
-0.097502
-0.053522
-0.021770
0.019072
0.039994
0.060863
0.051799
0.023321
-0.020938
-0.057529
-0.100424
-0.126375
-0.155363
-0.201797
-0.213538
-0.222438
-0.207534
-0.195242
-0.150955
-0.092379
-0.039503
-0.001659
0.064483
0.129909
0.177338
0.172763
0.166190
0.154481
0.134638
0.086835
0.018463
0.007308
-0.007848
-0.024893
-0.049049
-0.020232
0.027573
0.075865
0.136172
0.203211
0.289223
0.365832
0.436531
0.493279
0.592397
0.636823
0.626280
0.630872
0.648406
0.640608
0.650422
0.633138
0.609401
0.587775
0.565357
0.540927
0.563837
0.567123
0.562103
0.561120
0.556028
0.549192
0.511160
0.494435
0.458643
0.424547
0.354543
0.296665
0.234759
0.130735
0.080619
0.002825
-0.034392
-0.068447
-0.115833
-0.081555
-0.086236
-0.091753
-0.071338
-0.031161
0.023176
0.055750
0.105399
0.162843
0.188002
0.198208
0.174401
0.134928
0.110473
0.043181
-0.003792
-0.045997
-0.101875
-0.169657
-0.178647
-0.186765
-0.173858
-0.164712
-0.153215
-0.115064
-0.052868
-0.008373
0.042768
0.073641
0.078249
0.087917
0.098497
0.095533
0.054413
-0.009579
-0.040682
-0.095901
-0.147969
-0.151204
-0.140506
-0.130270
-0.137808
-0.146824
-0.126618
-0.077309
-0.023657
0.000444
0.039974
0.055318
0.081039
0.089321
0.098313
0.082595
0.030505
-0.025318
-0.086143
-0.139196
-0.192075
-0.151721
-0.151358
-0.184090
-0.191990
-0.137739
-0.097557
-0.068415
-0.017797
0.034431
0.088076
0.113213
0.125673
0.121757
0.099320
0.102519
0.075762
0.040596
0.005854
-0.061858
-0.104621
-0.131753
-0.161056
-0.176148
-0.154342
-0.123767
-0.104061
-0.073558
-0.031486
0.016303
0.074590
0.097043
0.123426
0.149539
0.134844
0.123699
0.085232
0.048599
0.000706
-0.061258
-0.090743
-0.125295
-0.138366
-0.132597
-0.108912
-0.080856
-0.068832
-0.012102
0.033167
0.079490
0.115772
0.146445
0.147144
0.146097
0.161254
0.149781
0.095861
0.063057
0.019597
-0.017294
-0.079135
-0.134701
-0.142801
-0.131302
-0.119441
-0.063321
-0.039102
-0.003333
0.051675
0.118037
0.155874
0.183891
0.206135
0.194232
0.196068
0.205979
0.182181
0.121796
0.069840
0.036225
-0.002995
-0.032439
-0.062696
-0.058376
-0.049973
-0.038419
-0.013550
0.015776
0.052010
0.120034
0.144935
0.185312
0.206283
0.204905
0.200950
0.174006
0.156957
0.112232
0.051642
0.035012
-0.022333
-0.054345
-0.061765
-0.078250
-0.092004
-0.046700
-0.030618
0.031873
0.106356
0.148455
0.176331
0.209614
0.239730
0.244077
0.247117
0.217740
0.161961
0.111622
0.053611
0.013452
-0.025944
-0.082940
-0.118011
-0.100657
-0.101371
-0.088854
-0.066494
-0.028753
-0.001978
0.096400
0.168977
0.189667
0.184832
0.219247
0.199781
0.146309
0.110235
0.073957
0.026043
-0.022422
-0.027975
-0.078035
-0.117403
-0.104715
-0.105401
-0.093068
-0.069714
-0.019324
0.064742
0.088192
0.078432
0.093216
0.138507
0.164275
0.145332
0.111199
0.084605
0.043006
-0.009945
-0.059829
-0.127314
-0.176740
-0.152227
-0.162956
-0.166844
-0.127351
-0.118635
-0.070997
-0.009834
0.046312
0.077956
0.086502
0.103399
0.133687
0.170190
0.148061
0.101752
0.035305
-0.009602
-0.057339
-0.101708
-0.147688
-0.170572
-0.178771
-0.173439
-0.149387
-0.125120
-0.109204
-0.055027
-0.012766
0.022681
0.056896
0.107928
0.113148
0.087207
0.059395
0.031490
-0.021192
-0.037263
-0.059710
-0.108397
-0.116931
-0.145768
-0.167434
-0.164740
-0.135608
-0.110703
-0.051639
-0.012854
0.036267
0.081655
0.108168
0.118878
0.121551
0.107221
0.101678
0.059676
0.000532
-0.070628
-0.112129
-0.150311
-0.210785
-0.225603
-0.204314
-0.157238
-0.118150
-0.123040
-0.107309
-0.054651
0.002087
0.072732
0.112435
0.137750
0.144173
0.127832
0.094960
0.063573
0.005281
-0.020432
-0.045246
-0.053830
-0.119468
-0.148250
-0.127548
-0.102954
-0.096050
-0.090541
-0.053079
-0.015496
0.010823
0.053362
0.075748
0.098745
0.104649
0.102781
0.091239
0.032941
0.005278
-0.050817
-0.116276
-0.147325
-0.161945
-0.165437
-0.180852
-0.163305
-0.139532
-0.105454
-0.054547
-0.026476
0.035314
0.082362
0.116968
0.150441
0.184521
0.174673
0.130994
0.066812
0.023439
-0.018713
-0.064992
-0.086969
-0.129769
-0.165573
-0.174604
-0.172220
-0.137690
-0.109234
-0.074106
-0.012937
0.024310
0.057636
0.095324
0.144932
0.136572
0.111248
0.106206
0.073899
0.033527
0.013372
-0.016860
-0.093188
-0.138445
-0.143867
-0.164234
-0.164961
-0.139569
-0.083077
-0.022579
0.018588
0.021167
0.072157
0.102943
0.132462
0.110928
0.086082
0.067535
0.032547
-0.002310
-0.020855
-0.050928
-0.109834
-0.183678
-0.206229
-0.175225
-0.178164
-0.160218
-0.141411
-0.084600
-0.014409
0.014980
0.070605
0.103494
0.114150
0.138009
0.122685
0.102009
0.086666
0.068703
0.002354
-0.060411
-0.116552
-0.149600
-0.176368
-0.193024
-0.197457
-0.158033
-0.123381
-0.073557
-0.037486
-0.011530
0.042578
0.078063
0.081164
0.079932
0.072769
0.039869
0.016049
0.016894
-0.019708
-0.065452
-0.120816
-0.129337
-0.155421
-0.171332
-0.170947
-0.127558
-0.093517
-0.055704
-0.012261
0.044061
0.056314
0.081744
0.109146
0.108673
0.119145
0.095696
0.057056
-0.001508
-0.047273
-0.102896
-0.149393
-0.167499
-0.179231
-0.167568
-0.176215
-0.165469
-0.130183
-0.056397
-0.019083
0.048268
0.070992
0.107092
0.135632
0.155313
0.157191
0.122988
0.085310
0.051547
0.016646
-0.029952
-0.076337
-0.106607
-0.143781
-0.187020
-0.164778
-0.094328
-0.069622
-0.050109
-0.027378
0.029395
0.091437
0.124778
0.127975
0.118411
0.110430
0.100940
0.072030
0.022604
-0.003913
-0.052516
-0.099550
-0.124138
-0.143919
-0.153779
-0.124991
-0.082736
-0.027033
0.013942
0.053182
0.089362
0.130409
0.157083
0.209022
0.201339
0.177081
0.159675
0.104922
0.028957
-0.019084
-0.076547
-0.125233
-0.149329
-0.160533
-0.145663
-0.141347
-0.145522
-0.113032
-0.087234
-0.019027
0.035094
0.081895
0.100371
0.139050
0.135078
0.124369
0.113668
0.072384
0.008739
-0.036106
-0.082101
-0.114270
-0.149250
-0.168581
-0.185833
-0.175832
-0.154937
-0.113933
-0.081958
-0.049817
-0.002086
0.048165
0.068231
0.087087
0.088871
0.058688
0.034163
0.003317
-0.046077
-0.096448
-0.149656
-0.159567
-0.190964
-0.215755
-0.206089
-0.206918
-0.185402
-0.168442
-0.143553
-0.085206
-0.008405
0.035625
0.110984
0.119142
0.130297
0.125526
0.082498
0.031981
-0.023609
-0.080023
-0.119969
-0.171477
-0.207620
-0.199625
-0.207641
-0.208266
-0.178502
-0.149702
-0.102811
-0.062430
-0.032947
0.008740
0.039379
0.065466
0.093924
0.082369
0.051750
-0.006633
-0.013964
-0.057294
-0.108416
-0.168977
-0.192374
-0.203880
-0.208342
-0.202164
-0.165908
-0.135613
-0.091183
-0.076520
-0.007293
0.037829
0.074977
0.071493
0.096281
0.056143
0.029540
0.013437
-0.041022
-0.097109
-0.126185
-0.163094
-0.193170
-0.216659
-0.220051
-0.212674
-0.169106
-0.127066
-0.064307
-0.004798
0.060363
0.133932
0.179700
0.213067
0.248854
0.253071
0.214538
0.208380
0.204194
0.167515
0.120538
0.127264
0.147340
0.159288
0.158025
0.187128
0.259481
0.336639
0.400783
0.451997
0.545045
0.622154
0.683471
0.713254
0.766024
0.773636
0.783043
0.764525
0.705005
0.621609
0.643961
0.591714
0.546743
0.492373
0.453400
0.418623
0.377553
0.349102
0.336503
0.315565
0.325144
0.336626
0.323839
0.297007
0.276171
0.240934
0.202753
0.146541
0.094925
0.056504
-0.005332
-0.082550
-0.122362
-0.144292
-0.149034
-0.127961
-0.094271
-0.070929
-0.032114
-0.001241
0.048983
0.099179
0.136467
0.150759
0.153723
0.133206
0.137496
0.076598
0.025889
0.005139
-0.048783
-0.097261
-0.125283
-0.156164
-0.172506
-0.174194
-0.151127
-0.107803
-0.053505
-0.013107
0.042267
0.068400
0.106400
0.112122
0.100319
0.083358
0.067611
0.045252
-0.028288
-0.072126
-0.124812
-0.159543
-0.137863
-0.133741
-0.179144
-0.195803
-0.149786
-0.119309
-0.076110
-0.058108
-0.007504
0.045923
0.084209
0.149649
0.176867
0.138128
0.107844
0.080611
0.041307
-0.014808
-0.057434
-0.084787
-0.172195
-0.183760
-0.191252
-0.181658
-0.149986
-0.113446
-0.089414
-0.029292
0.018842
0.063313
0.104281
0.131764
0.137095
0.116034
0.085070
0.062988
0.047421
-0.004483
-0.049410
-0.096332
-0.133099
-0.161978
-0.155090
-0.137882
-0.132366
-0.088251
0.029033
0.098369
0.108356
0.104038
0.105566
0.131143
0.147040
0.147926
0.106337
0.076035
0.050444
0.002878
-0.057936
-0.097419
-0.121617
-0.122146
-0.139550
-0.140527
-0.107944
-0.070404
-0.014329
0.031002
0.079944
0.123521
0.152916
0.172695
0.192430
0.181263
0.184418
0.151669
0.089463
0.052601
-0.007745
-0.007827
-0.069132
-0.096929
-0.085769
-0.061413
-0.042565
-0.054200
0.015545
0.064544
0.089412
0.110252
0.167185
0.198585
0.194191
0.187106
0.178736
0.160933
0.113746
0.065070
0.004424
-0.033938
-0.037720
-0.058696
-0.071690
-0.059813
-0.040588
0.022264
0.075133
0.093120
0.148484
0.197734
0.216722
0.252521
0.234479
0.190177
0.193417
0.172794
0.147441
0.098390
0.057975
0.010391
-0.072967
-0.085616
-0.066156
-0.052053
-0.037874
-0.025333
0.016295
0.066625
0.125316
0.167779
0.197394
0.217168
0.222958
0.210615
0.188751
0.148076
0.107393
0.065372
0.055817
0.010330
-0.031284
-0.064485
-0.085925
-0.097056
-0.058299
-0.009196
0.041886
0.062427
0.106971
0.136107
0.153322
0.162124
0.150990
0.137237
0.164035
0.133756
0.103923
0.040909
-0.022384
-0.072967
-0.107881
-0.129811
-0.159228
-0.147464
-0.106110
-0.071267
-0.025888
0.007890
0.052878
0.103045
0.149000
0.171428
0.176411
0.166918
0.143500
0.111917
0.043900
-0.005729
-0.076102
-0.105290
-0.112732
-0.140173
-0.177209
-0.204915
-0.170494
-0.130756
-0.068253
-0.031210
0.001160
0.051033
0.095991
0.133972
0.141736
0.125364
0.102062
0.065032
0.000949
-0.030953
-0.071129
-0.105576
-0.147041
-0.164265
-0.183969
-0.185598
-0.153931
-0.103629
-0.058593
-0.003532
0.040188
0.071147
0.103554
0.122557
0.130446
0.101798
0.066103
0.045086
0.018705
-0.050597
-0.081310
-0.117705
-0.155918
-0.180199
-0.166547
-0.156574
-0.160609
-0.113187
-0.065224
-0.023662
0.024749
0.055138
0.105483
0.129036
0.130709
0.120867
0.109588
0.053297
-0.007976
-0.038838
-0.075560
-0.082489
-0.115402
-0.155557
-0.179851
-0.166302
-0.147234
-0.101130
-0.075442
-0.026547
0.009674
0.063383
0.104661
0.112685
0.119851
0.098774
0.102221
0.075553
0.032134
-0.031195
-0.088093
-0.123482
-0.159026
-0.179323
-0.180678
-0.174066
-0.140195
-0.074000
-0.021139
-0.008548
0.011534
0.088915
0.127006
0.155342
0.133500
0.114102
0.093015
0.068094
0.014436
-0.040112
-0.090534
-0.122546
-0.157549
-0.169480
-0.182266
-0.175662
-0.146143
-0.109709
-0.051013
-0.023968
0.011392
0.057014
0.098233
0.122848
0.124198
0.116461
0.083250
0.062915
0.027577
0.000487
-0.039705
-0.106835
-0.169580
-0.204539
-0.181575
-0.166807
-0.167369
-0.106099
-0.033880
-0.015556
-0.001989
0.035561
0.073090
0.093524
0.094795
0.101532
0.054745
0.053183
0.028140
-0.030569
-0.089456
-0.149772
-0.197999
-0.207383
-0.189450
-0.174460
-0.140608
-0.083938
-0.053070
-0.014465
0.031895
0.076386
0.083848
0.091036
0.109033
0.117698
0.098083
0.086449
0.017095
-0.050741
-0.087107
-0.140425
-0.169027
-0.201825
-0.219849
-0.220653
-0.160487
-0.123967
-0.093644
-0.055196
-0.010637
0.035531
0.067376
0.090077
0.101508
0.105913
0.064700
0.024081
-0.009383
-0.042046
-0.067618
-0.114048
-0.154177
-0.177811
-0.198150
-0.210919
-0.191289
-0.144839
-0.095530
-0.037920
0.014815
0.042065
0.054498
0.091549
0.089623
0.066918
0.038013
0.003807
-0.034935
-0.075932
-0.106779
-0.124261
-0.170539
-0.189540
-0.192745
-0.190949
-0.160018
-0.132210
-0.112404
-0.078649
0.013579
0.044250
0.065033
0.076679
0.097311
0.108577
0.085234
0.035059
-0.012005
-0.064212
-0.093100
-0.127399
-0.185313
-0.209099
-0.223401
-0.227593
-0.191557
-0.173524
-0.132244
-0.076634
-0.039456
0.029483
0.065450
0.097823
0.098048
0.092523
0.064396
0.025313
-0.041696
-0.085889
-0.114715
-0.125573
-0.138372
-0.167480
-0.171641
-0.165587
-0.147618
-0.132014
-0.063723
0.004815
0.058474
0.077161
0.087600
0.142911
0.139211
0.099634
0.069040
0.033779
-0.008554
-0.050162
-0.105697
-0.149266
-0.194645
-0.218214
-0.240039
-0.216690
-0.183693
-0.150011
-0.084184
-0.021874
0.044414
0.087312
0.123697
0.149108
0.145137
0.154060
0.107346
0.053525
0.030133
0.016433
-0.000727
-0.073224
-0.115585
-0.145119
-0.159436
-0.149258
-0.141397
-0.123851
-0.102318
-0.063736
-0.013896
0.036903
0.085106
0.118166
0.099619
0.081401
0.055005
0.017621
0.008900
-0.067557
-0.116935
-0.158488
-0.196412
-0.209861
-0.210725
-0.207816
-0.190578
-0.166912
-0.117773
-0.037569
0.003802
0.048675
0.075476
0.087763
0.085189
0.074249
0.047378
0.009549
-0.036251
-0.083422
-0.145876
-0.198803
-0.243554
-0.270492
-0.282283
-0.256362
-0.215858
-0.182557
-0.159550
-0.122026
-0.065657
-0.021501
-0.010932
-0.011361
0.066972
0.064722
0.030651
0.005401
-0.028073
-0.082319
-0.152708
-0.194912
-0.192479
-0.218632
-0.240603
-0.232800
-0.225706
-0.175055
-0.144340
-0.110604
-0.046656
-0.000347
0.014084
0.039208
0.038734
0.013889
-0.013450
-0.082211
-0.111248
-0.108014
-0.146725
-0.192058
-0.219837
-0.265783
-0.267172
-0.261038
-0.236664
-0.185303
-0.135239
-0.087845
-0.025006
0.012334
0.014840
0.061222
0.072379
0.052517
0.041453
-0.008370
-0.043238
-0.098437
-0.157535
-0.219401
-0.231216
-0.256396
-0.264068
-0.258675
-0.241698
-0.214494
-0.178142
-0.135709
-0.084251
-0.031576
-0.015423
0.028927
0.062596
0.064864
0.049225
0.027315
0.000427
-0.032567
-0.068253
-0.071920
-0.093010
-0.109007
-0.101779
-0.089569
-0.039942
0.018661
0.099625
0.162153
0.248386
0.289543
0.348674
0.393974
0.397399
0.434086
0.449188
0.475866
0.438113
0.437926
0.448372
0.442604
0.429014
0.451269
0.462450
0.501597
0.569424
0.613576
0.634902
0.676041
0.714272
0.733715
0.741399
0.724079
0.690332
0.620590
0.536794
0.430039
0.324280
0.258420
0.165901
0.074298
-0.002992
-0.043769
-0.078355
-0.095745
-0.086968
-0.057266
-0.015955
0.024604
0.057389
0.088980
0.107372
0.124720
0.114957
0.109393
0.084657
0.039842
-0.003950
-0.047617
-0.096074
-0.136014
-0.156471
-0.177207
-0.197916
-0.195925
-0.155511
-0.143500
-0.087261
-0.021652
0.009392
0.054641
0.087764
0.099065
0.082876
0.085979
0.063517
0.033643
-0.023295
-0.080010
-0.124487
-0.181510
-0.235729
-0.271968
-0.278005
-0.288199
-0.265034
-0.181484
-0.119340
-0.084234
-0.061195
0.009144
0.032338
0.055004
0.068700
0.064932
0.025376
-0.009029
-0.060643
-0.104657
-0.108947
-0.131863
-0.163852
-0.217795
-0.218341
-0.208116
-0.188230
-0.160987
-0.095247
-0.054047
-0.008372
0.015006
0.036659
0.042832
0.052679
0.065232
0.021963
-0.023525
-0.063816
-0.115058
-0.167621
-0.191671
-0.221719
-0.247045
-0.234006
-0.213476
-0.188984
-0.146574
-0.106607
-0.062407
-0.027525
0.015048
0.045267
0.057357
0.122276
0.117336
0.083078
0.038758
0.003613
-0.040236
-0.093797
-0.147935
-0.185189
-0.209196
-0.215793
-0.210599
-0.192237
-0.151194
-0.106406
-0.054740
-0.020144
0.025357
0.060190
0.093795
0.094692
0.097462
0.065617
0.020867
0.004969
-0.032583
-0.062007
-0.105123
-0.134599
-0.149505
-0.159866
-0.139412
-0.113301
-0.076843
-0.053125
0.007240
0.026839
0.083963
0.123703
0.163184
0.193280
0.146418
0.102049
0.056216
0.027273
-0.009677
-0.053850
-0.096996
-0.123595
-0.149503
-0.153921
-0.172266
-0.115242
-0.086688
-0.036738
0.042670
0.074322
0.103266
0.142200
0.182564
0.200656
0.200016
0.164119
0.131093
0.092823
0.033922
-0.023405
-0.074969
-0.094774
-0.105437
-0.109354
-0.101803
-0.094450
-0.070738
-0.009072
0.012983
0.046795
0.068905
0.108507
0.137850
0.138924
0.126083
0.112389
0.084414
0.021381
-0.033483
-0.056699
-0.101801
-0.135680
-0.157390
-0.156637
-0.151573
-0.122508
-0.073741
-0.045356
0.033490
0.078201
0.110997
0.124280
0.137540
0.150147
0.129007
0.099914
0.075181
0.046402
-0.039593
-0.119901
-0.162681
-0.192836
-0.222563
-0.198565
-0.183720
-0.192005
-0.158023
-0.101798
-0.042733
0.000573
0.029312
0.065054
0.076314
0.088812
0.109387
0.057901
0.027860
-0.021528
-0.056361
-0.093943
-0.134936
-0.176640
-0.203734
-0.201142
-0.197597
-0.186202
-0.159725
-0.129027
-0.074669
-0.034441
-0.000670
0.014107
0.041773
0.024826
0.002333
-0.032856
-0.070141
-0.077039
-0.113570
-0.152357
-0.203876
-0.251512
-0.264108
-0.281809
-0.270495
-0.240788
-0.214975
-0.147763
-0.089527
-0.007846
0.012368
0.024760
0.027216
0.042483
0.034328
0.028992
-0.000219
-0.058383
-0.111607
-0.156075
-0.198808
-0.246555
-0.276300
-0.285527
-0.289119
-0.232704
-0.183065
-0.185464
-0.144152
-0.109849
-0.052780
-0.015966
0.011690
0.000016
0.013378
-0.012768
-0.058461
-0.079930
-0.127418
-0.175825
-0.205073
-0.228510
-0.244415
-0.264794
-0.271287
-0.226922
-0.163550
-0.129450
-0.099783
-0.051087
0.010950
0.052031
0.067369
0.049440
0.024052
-0.028623
-0.049424
-0.111480
-0.146754
-0.170789
-0.211600
-0.250396
-0.283774
-0.298557
-0.296765
-0.284382
-0.217290
-0.155217
-0.093703
-0.049805
-0.010589
0.010379
0.029590
0.067880
0.057937
0.019113
-0.009886
-0.058710
-0.114655
-0.166661
-0.188220
-0.213103
-0.243274
-0.275653
-0.269385
-0.199753
-0.189923
-0.168823
-0.123856
-0.069971
-0.034465
-0.042669
-0.007485
0.030073
0.011251
-0.021396
-0.077300
-0.098612
-0.117270
-0.165484
-0.211230
-0.246223
-0.242299
-0.257272
-0.258099
-0.234590
-0.185394
-0.156903
-0.110520
-0.068902
-0.033224
-0.003311
0.006985
0.024793
0.032924
0.019507
-0.024196
-0.105624
-0.115892
-0.189871
-0.247841
-0.273207
-0.284910
-0.289261
-0.281373
-0.276049
-0.250151
-0.184339
-0.140393
-0.101052
-0.053753
-0.005612
0.003667
0.019685
0.003245
-0.028885
-0.049817
-0.075488
-0.116945
-0.184844
-0.225721
-0.261913
-0.285209
-0.286565
-0.284758
-0.249274
-0.211949
-0.163306
-0.125156
-0.070315
-0.013622
-0.018538
-0.022590
-0.009107
-0.021999
-0.064822
-0.109243
-0.144243
-0.179940
-0.226218
-0.267034
-0.301086
-0.312218
-0.280482
-0.300195
-0.288364
-0.249099
-0.213925
-0.141479
-0.089557
-0.053279
0.015116
0.043728
0.045390
0.027118
-0.027428
-0.071320
-0.109835
-0.152906
-0.195330
-0.259251
-0.278138
-0.293963
-0.314487
-0.315268
-0.283407
-0.232817
-0.212498
-0.188493
-0.150903
-0.092581
-0.061662
-0.045756
-0.020698
-0.018691
-0.025392
-0.063216
-0.111655
-0.179116
-0.215531
-0.250801
-0.279165
-0.274628
-0.260324
-0.270964
-0.270605
-0.223851
-0.179183
-0.143484
-0.107127
-0.087087
-0.045552
0.005259
-0.000690
-0.016816
-0.042481
-0.068492
-0.132289
-0.218583
-0.246334
-0.278081
-0.309784
-0.349746
-0.335031
-0.273709
-0.242980
-0.222217
-0.204582
-0.155186
-0.095617
-0.021690
0.024774
0.016435
0.019394
0.033577
-0.010772
-0.039107
-0.079804
-0.136879
-0.165238
-0.211164
-0.239127
-0.273327
-0.283642
-0.297536
-0.290797
-0.257586
-0.236789
-0.161864
-0.091311
-0.058271
-0.042093
-0.031908
0.001446
0.003035
-0.016132
-0.067239
-0.100577
-0.143678
-0.185660
-0.202412
-0.210279
-0.256204
-0.251566
-0.224504
-0.225286
-0.197083
-0.141658
-0.075232
-0.032846
0.025923
0.054611
0.044566
-0.004681
-0.022280
-0.010630
0.001625
-0.057041
-0.152334
-0.211234
-0.259163
-0.289496
-0.325129
-0.332317
-0.338128
-0.309289
-0.278195
-0.224345
-0.181048
-0.118942
-0.088052
-0.084011
-0.070001
-0.031920
0.003967
-0.008741
-0.035398
-0.072870
-0.140570
-0.194323
-0.242294
-0.272475
-0.296658
-0.320482
-0.299167
-0.292132
-0.258133
-0.214914
-0.168866
-0.123953
-0.098276
-0.070072
-0.039800
-0.046034
-0.075184
-0.096582
-0.140129
-0.169410
-0.205338
-0.254285
-0.275850
-0.308430
-0.329017
-0.345948
-0.346768
-0.297311
-0.250500
-0.221351
-0.190731
-0.076537
-0.042013
-0.045398
-0.026444
0.011277
0.000574
-0.031508
-0.071665
-0.112919
-0.173160
-0.209459
-0.260464
-0.312552
-0.333690
-0.343601
-0.340630
-0.310441
-0.294456
-0.242795
-0.202279
-0.174752
-0.121688
-0.056626
-0.037073
-0.023127
-0.044238
-0.070122
-0.098235
-0.124700
-0.167392
-0.212672
-0.279571
-0.320333
-0.300721
-0.292763
-0.287922
-0.272302
-0.251217
-0.219600
-0.137366
-0.091516
-0.075677
-0.079172
-0.022894
-0.024942
-0.040769
-0.078399
-0.106660
-0.168794
-0.217536
-0.265986
-0.295448
-0.319518
-0.342374
-0.346744
-0.328808
-0.290538
-0.226478
-0.183056
-0.108569
-0.041551
0.018185
0.070708
0.111401
0.134532
0.125422
0.131253
0.123956
0.099999
0.075615
0.073496
0.051730
0.070002
0.081470
0.127131
0.172160
0.192190
0.241673
0.320375
0.423839
0.512960
0.580377
0.639591
0.691332
0.710411
0.746632
0.710823
0.671950
0.618593
0.530840
0.490555
0.466596
0.408818
0.359516
0.299056
0.238167
0.200220
0.167637
0.161417
0.173201
0.168444
0.154692
0.155037
0.161251
0.163682
0.134326
0.092230
0.076522
0.015082
-0.045829
-0.099026
-0.144304
-0.187136
-0.232823
-0.254690
-0.263765
-0.238842
-0.217584
-0.157368
-0.107884
-0.095007
-0.040034
-0.009096
0.019553
0.006837
0.001606
-0.024960
-0.048486
-0.076009
-0.120213
-0.190902
-0.230290
-0.277575
-0.277844
-0.284855
-0.274774
-0.259008
-0.226258
-0.179322
-0.119050
-0.068895
-0.017872
-0.008693
-0.003647
0.000714
-0.029779
-0.080844
-0.102413
-0.130309
-0.181736
-0.208319
-0.250312
-0.309319
-0.325486
-0.329490
-0.323684
-0.285400
-0.233165
-0.178080
-0.157957
-0.101861
-0.052259
-0.003112
0.017132
0.030841
0.022250
0.002014
-0.051453
-0.112669
-0.157969
-0.210680
-0.236592
-0.265983
-0.294120
-0.302012
-0.293090
-0.304022
-0.233785
-0.203670
-0.155018
-0.108576
-0.075369
-0.037820
-0.006912
0.006919
-0.006596
-0.026609
-0.066683
-0.096689
-0.146792
-0.187047
-0.225439
-0.255198
-0.257589
-0.244599
-0.222116
-0.208084
-0.191357
-0.173978
-0.124160
-0.068129
-0.025529
0.024786
0.050929
0.038248
0.017735
-0.016371
-0.051171
-0.079292
-0.118793
-0.147915
-0.186845
-0.225660
-0.274244
-0.284518
-0.233621
-0.217384
-0.197262
-0.143385
-0.089240
-0.032647
0.013984
0.051325
0.061958
0.078265
0.075562
0.090611
0.040794
-0.005687
-0.051179
-0.095310
-0.150238
-0.183269
-0.196569
-0.192608
-0.206247
-0.186238
-0.153850
-0.113419
-0.055815
-0.018138
0.019776
0.070697
0.078932
0.100186
0.081233
0.038266
0.021666
-0.006504
-0.061229
-0.095544
-0.122070
-0.127441
-0.145993
-0.145230
-0.157033
-0.142048
-0.107540
-0.077534
-0.001748
0.073605
0.104492
0.113699
0.116135
0.122142
0.109638
0.080405
0.033771
-0.026278
-0.083233
-0.106153
-0.130909
-0.176373
-0.182648
-0.182081
-0.183324
-0.162812
-0.139781
-0.115263
-0.073180
-0.034280
0.024140
0.066409
0.091524
0.100082
0.100175
0.086086
0.070763
0.025704
-0.045128
-0.087162
-0.113009
-0.147849
-0.185662
-0.206596
-0.201545
-0.183555
-0.162393
-0.098130
-0.058723
-0.040383
0.000203
0.018165
0.017572
0.018754
0.023928
0.000741
-0.049025
-0.092640
-0.114638
-0.156758
-0.177952
-0.210820
-0.240828
-0.251639
-0.226971
-0.223800
-0.195020
-0.153608
-0.105763
-0.053813
-0.009633
0.042810
0.048794
0.044601
0.036905
-0.003158
-0.047308
-0.060932
-0.124718
-0.190418
-0.244540
-0.249770
-0.259357
-0.295489
-0.301435
-0.283063
-0.261559
-0.216780
-0.172914
-0.112985
-0.074486
-0.036147
-0.016626
-0.001186
-0.014773
-0.058821
-0.086302
-0.096414
-0.129303
-0.190357
-0.241411
-0.264997
-0.247458
-0.260283
-0.257162
-0.251995
-0.234916
-0.193132
-0.139542
-0.094901
-0.062019
-0.030881
-0.010129
-0.022963
-0.035966
-0.057279
-0.090527
-0.129156
-0.162397
-0.205031
-0.256620
-0.289045
-0.310656
-0.304856
-0.293605
-0.263197
-0.238318
-0.174103
-0.124329
-0.076614
-0.057871
0.010958
0.044840
0.048906
0.035927
-0.014355
-0.060097
-0.094824
-0.122361
-0.167408
-0.215332
-0.276327
-0.301034
-0.290023
-0.282371
-0.268814
-0.245743
-0.210749
-0.162347
-0.120235
-0.066857
-0.007257
-0.014726
-0.004199
-0.007557
-0.010100
-0.021203
-0.071405
-0.127580
-0.159508
-0.219744
-0.235249
-0.246809
-0.267252
-0.256918
-0.230189
-0.200879
-0.165122
-0.118034
-0.068174
-0.032191
-0.016077
0.004523
-0.001318
-0.004411
-0.032548
-0.044879
-0.098614
-0.148846
-0.207701
-0.247515
-0.276824
-0.274225
-0.281923
-0.280700
-0.256449
-0.214806
-0.169399
-0.107534
-0.073204
-0.049358
-0.003246
0.041726
0.045996
0.032938
0.016889
-0.021976
-0.072218
-0.115748
-0.157749
-0.204386
-0.241926
-0.255079
-0.272219
-0.278957
-0.260661
-0.214183
-0.184503
-0.135703
-0.096538
-0.049954
-0.025676
-0.014992
0.011010
0.000212
-0.040047
-0.055587
-0.108822
-0.143452
-0.172823
-0.211315
-0.250285
-0.266272
-0.268795
-0.220972
-0.198110
-0.189864
-0.156508
-0.104125
-0.066475
-0.049228
0.015018
0.019124
0.000483
0.005426
-0.025806
-0.067068
-0.115563
-0.185830
-0.214659
-0.261650
-0.280392
-0.298436
-0.285651
-0.275206
-0.250081
-0.232496
-0.189200
-0.126959
-0.078915
-0.043026
-0.011792
0.018085
0.024889
0.028926
0.001871
-0.030007
-0.083191
-0.127749
-0.178851
-0.225006
-0.260919
-0.298681
-0.317790
-0.310449
-0.272355
-0.236723
-0.194969
-0.130044
-0.054189
-0.052092
-0.056670
-0.025026
-0.006345
-0.012325
-0.032523
-0.063865
-0.092956
-0.147130
-0.195823
-0.229048
-0.253774
-0.273867
-0.289877
-0.277114
-0.239772
-0.202243
-0.149690
-0.088693
-0.055711
0.005982
0.020050
0.025450
0.016943
-0.011660
-0.016401
-0.057738
-0.099366
-0.168881
-0.221924
-0.261362
-0.283547
-0.332304
-0.313552
-0.308625
-0.286882
-0.244545
-0.178150
-0.140040
-0.118000
-0.064542
-0.004099
0.027383
0.017421
0.001733
-0.013053
-0.047586
-0.090974
-0.144983
-0.154645
-0.176331
-0.215630
-0.253193
-0.270308
-0.273750
-0.268011
-0.236977
-0.187676
-0.141668
-0.095384
-0.056014
-0.033732
-0.017111
-0.010871
-0.031259
-0.006402
-0.025199
-0.084752
-0.175793
-0.183046
-0.228212
-0.258175
-0.281331
-0.265460
-0.248521
-0.206036
-0.161603
-0.109287
-0.067144
-0.013323
0.022829
0.062265
0.078247
0.084117
0.062572
0.009621
-0.022992
-0.053045
-0.105162
-0.150636
-0.177465
-0.225132
-0.237584
-0.290575
-0.300117
-0.268944
-0.210260
-0.156556
-0.110262
-0.044757
0.014282
0.037279
0.057299
0.070993
0.072675
0.052767
0.044338
-0.030197
-0.096347
-0.141222
-0.164862
-0.200063
-0.194459
-0.183505
-0.191661
-0.176031
-0.146136
-0.123729
-0.077858
-0.036586
0.012933
0.037718
0.032731
0.029427
0.008112
-0.010452
-0.034128
-0.085294
-0.128321
-0.181651
-0.247555
-0.268497
-0.281160
-0.277073
-0.271796
-0.254424
-0.220291
-0.184814
-0.134869
-0.082673
-0.019608
0.005273
0.011662
0.003703
0.031124
-0.003222
-0.042850
-0.083779
-0.136888
-0.187283
-0.219666
-0.247651
-0.266962
-0.298062
-0.317322
-0.312312
-0.260820
-0.225948
-0.129963
-0.055498
-0.050657
-0.029545
-0.016802
0.001231
-0.013151
-0.044638
-0.075919
-0.114724
-0.149953
-0.172356
-0.233144
-0.263789
-0.278390
-0.321094
-0.277728
-0.256839
-0.236995
-0.185460
-0.125443
-0.086843
-0.056782
0.002113
0.018754
0.018458
0.013316
-0.014721
-0.025735
-0.101070
-0.181116
-0.241180
-0.283670
-0.281638
-0.289556
-0.312982
-0.312644
-0.312921
-0.274712
-0.212247
-0.160910
-0.106736
-0.065206
-0.026589
-0.011005
-0.003535
-0.007313
-0.028256
-0.053956
-0.091641
-0.123991
-0.174649
-0.206266
-0.259781
-0.292807
-0.292423
-0.283905
-0.263930
-0.236662
-0.191606
-0.153518
-0.111198
-0.053483
-0.015951
-0.008860
0.006225
0.001286
0.003177
-0.048725
-0.093843
-0.135884
-0.128706
-0.120890
-0.145961
-0.171948
-0.141775
-0.118649
-0.072966
-0.008653
0.072191
0.158163
0.237630
0.283565
0.330589
0.387166
0.433754
0.452985
0.466564
0.477420
0.473521
0.470021
0.472807
0.491518
0.461814
0.473888
0.479476
0.519013
0.552035
0.568319
0.588353
0.623022
0.652655
0.673946
0.683129
0.681497
0.644120
0.562354
0.474193
0.395364
0.311317
0.217856
0.111950
0.012936
-0.057754
-0.085691
-0.104521
-0.096747
-0.085694
-0.080363
-0.013674
0.079667
0.130570
0.113109
0.116332
0.101840
0.085851
0.098311
0.077921
0.024598
-0.015185
-0.084194
-0.136358
-0.186327
-0.224506
-0.252832
-0.263361
-0.253476
-0.202458
-0.169605
-0.142755
-0.088941
-0.037843
-0.024750
0.027442
0.053010
0.064249
0.047664
0.012585
-0.016395
-0.060501
-0.095629
-0.145071
-0.197499
-0.200401
-0.220684
-0.243069
-0.262921
-0.246808
-0.194637
-0.152387
-0.099302
-0.039731
-0.002871
0.023285
0.019385
0.015507
-0.005808
-0.020604
-0.055328
-0.093456
-0.134779
-0.149809
-0.192778
-0.230566
-0.277507
-0.278242
-0.265861
-0.249104
-0.169682
-0.132244
-0.082384
-0.040875
0.008916
0.060909
0.088523
0.105881
0.071639
0.022186
0.004639
-0.038108
-0.114502
-0.164360
-0.173936
-0.201740
-0.209913
-0.239008
-0.258387
-0.241208
-0.214897
-0.130692
-0.099024
-0.059005
-0.016150
0.020740
0.035896
0.065897
0.065296
0.042290
0.009577
-0.004239
-0.051579
-0.110794
-0.142555
-0.169438
-0.183301
-0.183906
-0.180737
-0.153890
-0.124184
-0.082026
-0.034866
-0.001210
0.046307
0.096212
0.121685
0.125660
0.091200
0.077361
0.036491
-0.017407
-0.075695
-0.120376
-0.152042
-0.175204
-0.209595
-0.212892
-0.195219
-0.169109
-0.140472
-0.080584
-0.025037
0.034639
0.090800
0.122407
0.141126
0.187216
0.184701
0.150261
0.075880
0.032150
0.022795
0.020086
-0.022550
-0.080386
-0.119582
-0.141850
-0.128177
-0.123092
-0.098380
-0.054980
-0.004838
0.034687
0.069347
0.160783
0.188878
0.144252
0.116816
0.139610
0.081911
0.036856
0.005980
-0.034527
-0.060546
-0.087791
-0.116151
-0.126139
-0.125058
-0.104819
-0.060817
-0.001526
0.051000
0.111516
0.154326
0.196162
0.200183
0.192228
0.175802
0.151252
0.106190
0.058841
0.016962
-0.038940
-0.077170
-0.116582
-0.140570
-0.151827
-0.147689
-0.129826
-0.090290
-0.037199
0.006023
0.049622
0.107131
0.153286
0.165691
0.157943
0.154019
0.121790
0.082804
0.049321
0.009523
-0.018559
-0.076463
-0.120428
-0.165839
-0.183543
-0.173680
-0.134317
-0.105976
-0.059206
-0.013633
0.025637
0.050547
0.078970
0.100201
0.105121
0.093055
0.070263
0.037752
-0.003560
-0.037811
-0.111216
-0.174638
-0.182772
-0.190065
-0.200700
-0.182661
-0.174122
-0.149331
-0.086502
-0.059170
-0.006158
0.043837
0.065292
0.065518
0.091357
0.113592
0.064028
0.027519
-0.020181
-0.076250
-0.132737
-0.171425
-0.215587
-0.224308
-0.228588
-0.217258
-0.203162
-0.159557
-0.117556
-0.069805
-0.039449
-0.000510
0.042189
0.104478
0.081163
0.086371
0.051651
0.010037
-0.022816
-0.068253
-0.103266
-0.139523
-0.183015
-0.229015
-0.236501
-0.239351
-0.230890
-0.175880
-0.117103
-0.056604
-0.014921
0.018483
0.058991
0.076645
0.066248
0.066084
0.042571
0.030160
-0.033991
-0.080969
-0.123459
-0.176875
-0.220080
-0.235916
-0.235699
-0.218795
-0.187761
-0.140134
-0.094725
-0.044333
-0.004632
0.032488
0.047568
0.061827
0.077404
0.072979
0.063848
0.036194
-0.000450
-0.036106
-0.089308
-0.168240
-0.211621
-0.233566
-0.218381
-0.213453
-0.169517
-0.147893
-0.117973
-0.072595
-0.025223
0.019991
0.061767
0.086458
0.094806
0.082652
0.062670
0.016538
-0.013558
-0.064110
-0.108788
-0.148089
-0.198241
-0.193580
-0.194053
-0.180431
-0.168397
-0.144530
-0.116119
-0.076234
0.009352
0.038034
0.071099
0.091458
0.106723
0.104564
0.050974
0.011153
-0.012725
-0.058443
-0.101534
-0.142319
-0.175097
-0.214390
-0.217567
-0.195252
-0.192048
-0.142215
-0.114041
-0.048818
0.007087
0.040790
0.070351
0.101634
0.135995
0.119518
0.086469
0.030969
-0.039692
-0.052470
-0.094829
-0.126387
-0.177912
-0.188331
-0.202281
-0.214263
-0.180315
-0.117904
-0.108325
-0.061569
-0.023096
0.031751
0.068884
0.097966
0.072613
0.066720
0.048453
-0.002206
-0.072691
-0.095533
-0.120003
-0.134572
-0.186360
-0.211891
-0.197483
-0.199312
-0.175572
-0.142158
-0.108683
-0.055772
-0.003952
0.049606
0.078844
0.089628
0.084656
0.077896
0.052558
0.007141
-0.037686
-0.079458
-0.142810
-0.173862
-0.186011
-0.217665
-0.243920
-0.235766
-0.209254
-0.163512
-0.139943
-0.117963
-0.031727
0.011584
0.069283
0.088039
0.093034
0.089637
0.058039
0.017538
-0.014341
-0.052908
-0.114947
-0.153641
-0.175561
-0.197515
-0.188894
-0.192618
-0.199699
-0.141868
-0.117963
-0.078833
-0.014492
0.016608
0.064654
0.069704
0.062870
0.040826
0.022788
-0.008436
-0.037433
-0.068916
-0.123224
-0.179536
-0.216487
-0.225029
-0.227740
-0.214848
-0.183902
-0.166873
-0.113807
-0.057129
-0.005611
0.018475
0.053355
0.085433
0.109350
0.075498
0.036073
0.030634
0.011924
-0.067372
-0.113888
-0.147043
-0.186901
-0.237733
-0.254351
-0.259038
-0.222796
-0.197205
-0.124211
-0.064098
-0.027338
-0.003060
0.028231
0.068104
0.056717
0.038585
0.038662
0.000728
-0.016085
-0.053089
-0.097378
-0.146023
-0.180581
-0.182734
-0.213468
-0.218529
-0.211533
-0.154084
-0.097144
-0.049465
-0.021595
0.005639
0.046579
0.060963
0.069746
0.066855
0.046814
0.018126
-0.031514
-0.072937
-0.124545
-0.180646
-0.214518
-0.233799
-0.253788
-0.233729
-0.188816
-0.170132
-0.122934
-0.074341
-0.022843
0.017657
0.048668
0.070157
0.077079
0.075535
0.063682
0.028978
-0.013613
-0.045108
-0.104618
-0.102470
-0.153790
-0.209831
-0.234014
-0.232347
-0.216956
-0.163166
-0.135272
-0.091414
-0.055242
0.009354
0.040809
0.073949
0.097292
0.071035
0.043752
0.007237
-0.027044
-0.073875
-0.125203
-0.160884
-0.191751
-0.203653
-0.206846
-0.191597
-0.136227
-0.101376
-0.078390
-0.026950
0.029511
0.064713
0.102877
0.100249
0.105265
0.111742
0.103354
0.075682
0.025068
-0.033601
-0.092457
-0.135724
-0.173586
-0.199979
-0.204401
-0.207475
-0.208436
-0.158757
-0.119326
-0.077985
-0.044413
0.030388
0.087046
0.111049
0.133503
0.128659
0.152756
0.109093
0.066797
-0.010666
-0.050015
-0.047708
-0.068309
-0.112246
-0.149214
-0.134921
-0.106554
-0.078006
-0.051665
-0.026003
0.013514
0.054152
0.084665
0.105954
0.105636
0.084059
0.056150
0.029173
-0.016604
-0.065045
-0.109620
-0.150084
-0.203728
-0.223117
-0.230641
-0.194595
-0.167786
-0.121485
-0.068784
-0.043364
-0.007983
0.019105
0.056189
0.097396
0.094907
0.088174
0.086448
0.058295
0.001403
-0.065660
-0.120013
-0.171511
-0.208671
-0.237237
-0.218176
-0.192725
-0.190154
-0.168708
-0.140786
-0.096251
-0.032757
0.006853
0.018384
0.033139
0.065822
0.091774
0.071200
-0.007175
-0.054540
-0.107539
-0.132473
-0.168238
-0.214071
-0.231524
-0.228638
-0.229286
-0.211185
-0.163821
-0.100901
-0.069690
0.003314
0.018978
0.027614
0.048981
0.050757
0.067545
0.057535
0.027659
-0.008227
-0.073350
-0.122689
-0.183133
-0.227701
-0.253391
-0.263102
-0.239354
-0.222291
-0.192370
-0.128917
-0.080375
-0.031517
0.002992
0.031299
0.062049
0.063447
0.062166
0.070181
0.038833
0.028194
-0.045649
-0.123746
-0.190909
-0.214874
-0.234158
-0.233866
-0.233898
-0.187012
-0.145700
-0.125293
-0.104751
-0.045047
-0.007159
0.028272
0.036639
0.050423
0.031371
0.029549
0.015366
-0.017154
-0.061303
-0.087917
-0.118342
-0.135686
-0.151766
-0.155091
-0.133045
-0.078697
-0.021584
0.005258
0.099847
0.164990
0.222017
0.273076
0.305421
0.384754
0.411749
0.426189
0.420147
0.388108
0.393186
0.377928
0.366449
0.348745
0.362549
0.411109
0.453180
0.486200
0.553871
0.647523
0.727862
0.768539
0.786483
0.815605
0.843543
0.847598
0.834236
0.817389
0.772231
0.669098
0.531990
0.404532
0.332882
0.241539
0.170824
0.118978
0.085030
0.071060
0.069994
0.111301
0.133623
0.180130
0.201758
0.218915
0.206272
0.187834
0.176265
0.148032
0.131756
0.076491
0.004470
-0.045579
-0.089794
-0.129935
-0.166818
-0.174571
-0.171765
-0.138981
-0.096931
-0.051715
-0.011374
0.037377
0.083023
0.106339
0.150048
0.154433
0.127573
0.113406
0.079591
0.045805
-0.034229
-0.068761
-0.086599
-0.129212
-0.171047
-0.203358
-0.176128
-0.167658
-0.144548
-0.118769
-0.105378
-0.038954
0.009839
0.068890
0.096797
0.117179
0.093232
0.050277
0.028448
0.000554
-0.037455
-0.078683
-0.124815
-0.161553
-0.173958
-0.186354
-0.171435
-0.143432
-0.114294
-0.050033
-0.002206
0.040340
0.063886
0.090041
0.130169
0.134475
0.116400
0.095310
0.043200
0.007357
-0.039563
-0.092909
-0.145521
-0.168251
-0.175354
-0.208783
-0.186031
-0.158060
-0.115075
-0.082905
-0.015343
0.070326
0.103647
0.121457
0.120264
0.117629
0.134869
0.147318
0.117464
0.059966
0.003716
-0.045221
-0.086942
-0.137935
-0.135072
-0.153439
-0.153251
-0.130059
-0.102233
-0.065605
0.009426
0.059813
0.080173
0.104371
0.149142
0.155956
0.148738
0.127535
0.096021
0.058306
0.017003
-0.030872
-0.072752
-0.112758
-0.136194
-0.120635
-0.082268
-0.041143
-0.034202
0.005390
0.059109
0.111107
0.138608
0.191920
0.209281
0.220543
0.208266
0.150431
0.148052
0.109505
0.058752
0.014397
-0.018879
-0.094494
-0.112319
-0.097469
-0.061224
-0.064851
-0.037428
0.003064
0.068380
0.121207
0.151368
0.195399
0.247388
0.272916
0.249916
0.233692
0.190892
0.148242
0.104567
0.056827
0.038090
0.008211
-0.021559
-0.064403
-0.042163
-0.007394
0.017757
0.065188
0.111296
0.164877
0.186812
0.210432
0.211502
0.209788
0.213032
0.184051
0.147054
0.110582
0.061864
0.028290
-0.012219
-0.049888
-0.069432
-0.071377
-0.072174
-0.043632
0.004100
0.029938
0.076266
0.140041
0.186180
0.217898
0.236230
0.240005
0.215601
0.200135
0.186317
0.132052
0.061908
0.008946
-0.026804
-0.058350
-0.095130
-0.121836
-0.114646
-0.097805
-0.067930
-0.024592
0.012603
0.052477
0.128739
0.154094
0.153983
0.169268
0.187939
0.181650
0.127983
0.071244
0.030469
-0.027622
-0.078983
-0.114325
-0.114592
-0.114264
-0.094368
-0.068831
-0.059354
-0.041724
0.023839
0.106390
0.112558
0.112413
0.135389
0.141805
0.140913
0.106367
0.080690
0.033784
-0.025461
-0.091846
-0.143075
-0.197498
-0.205070
-0.205577
-0.184250
-0.145425
-0.118720
-0.069772
-0.008545
0.033527
0.066842
0.136882
0.160065
0.154495
0.137206
0.124468
0.079773
0.027793
-0.021092
-0.069067
-0.129197
-0.166690
-0.169988
-0.205530
-0.199185
-0.172044
-0.162681
-0.095537
-0.041472
0.011027
0.049805
0.078586
0.094279
0.108936
0.115771
0.105195
0.059537
0.009144
-0.026941
-0.073670
-0.108517
-0.166161
-0.132600
-0.121157
-0.138803
-0.137736
-0.095406
-0.051926
-0.006300
0.041617
0.085471
0.115189
0.124807
0.118735
0.119386
0.100807
0.053212
0.023967
-0.029199
-0.081555
-0.113721
-0.148351
-0.177644
-0.187861
-0.182716
-0.154945
-0.111487
-0.059437
-0.010254
0.044248
0.088194
0.123141
0.141242
0.127668
0.132150
0.127920
0.095769
0.048152
0.004663
-0.043972
-0.095245
-0.114078
-0.147453
-0.169180
-0.165252
-0.151950
-0.091561
-0.062883
-0.030702
0.037527
0.066178
0.096619
0.122189
0.132187
0.106539
0.087651
0.064694
0.031340
-0.024884
-0.098895
-0.122188
-0.159528
-0.158123
-0.173911
-0.145613
-0.124726
-0.092313
-0.043207
0.019359
0.050218
0.089959
0.129562
0.162599
0.172649
0.148402
0.129364
0.091611
0.042871
-0.019533
-0.087292
-0.108401
-0.121985
-0.188080
-0.195524
-0.189189
-0.170688
-0.124945
-0.085748
-0.022624
0.033550
0.082849
0.098348
0.140761
0.143737
0.145233
0.134227
0.093336
0.037379
-0.009298
-0.049586
-0.095670
-0.129084
-0.145088
-0.148710
-0.161994
-0.152937
-0.104396
-0.047557
-0.011326
0.029044
0.052767
0.096347
0.120723
0.123083
0.116839
0.072411
0.034362
-0.012561
-0.055530
-0.083096
-0.118729
-0.150545
-0.161079
-0.170535
-0.188160
-0.151059
-0.110108
-0.052556
-0.004885
0.039142
0.082625
0.108241
0.137841
0.148253
0.125512
0.094479
0.047472
0.009387
-0.038797
-0.081873
-0.120832
-0.161175
-0.180341
-0.178399
-0.177637
-0.160539
-0.134549
-0.087508
-0.052821
0.011125
0.044695
0.071811
0.092012
0.103577
0.109363
0.090899
0.043771
-0.005669
-0.029155
-0.034285
-0.082447
-0.156726
-0.161090
-0.151400
-0.165962
-0.148276
-0.118816
-0.082065
-0.025853
0.018950
0.051200
0.080100
0.085642
0.095427
0.066558
0.036990
0.073046
0.002711
-0.040338
-0.102073
-0.159166
-0.186184
-0.189754
-0.176737
-0.147933
-0.137023
-0.113877
-0.071806
-0.038221
0.040645
0.073778
0.110999
0.118743
0.130935
0.114361
0.099925
0.056858
0.027218
-0.012628
-0.077265
-0.124782
-0.146760
-0.179860
-0.200604
-0.172342
-0.153418
-0.149330
-0.108512
-0.060505
-0.018576
0.031276
0.076140
0.098456
0.122331
0.111694
0.054427
0.027864
0.001155
-0.022148
-0.066945
-0.102539
-0.139234
-0.167885
-0.179129
-0.162030
-0.129009
-0.110739
-0.078435
-0.035239
0.024915
0.070054
0.094552
0.113631
0.121382
0.096358
0.073872
0.038452
0.000592
-0.035056
-0.102720
-0.143561
-0.180630
-0.194275
-0.184199
-0.173355
-0.146879
-0.101504
-0.061708
-0.002814
0.037216
0.091960
0.126837
0.143865
0.143119
0.152574
0.137246
0.094776
0.069402
0.012910
-0.053479
-0.109389
-0.139265
-0.153768
-0.163903
-0.134044
-0.086907
-0.052014
-0.050895
-0.021851
0.005980
0.081798
0.103068
0.152501
0.147516
0.121446
0.105377
0.077336
0.057069
0.023114
-0.013186
-0.074164
-0.108801
-0.147497
-0.143838
-0.122671
-0.099927
-0.057568
-0.040634
0.017762
0.081553
0.121552
0.125863
0.231368
0.216425
0.157917
0.136776
0.093736
0.028032
-0.029197
-0.088060
-0.124224
-0.156985
-0.174286
-0.180586
-0.173499
-0.150776
-0.131779
-0.078853
-0.025167
0.027514
0.079417
0.124040
0.133119
0.143290
0.152322
0.126231
0.097714
0.041007
-0.022942
-0.069767
-0.127692
-0.163668
-0.178101
-0.174360
-0.179879
-0.167494
-0.147239
-0.111047
-0.053179
0.005369
0.018915
0.057623
0.079606
0.077907
0.060914
0.041145
0.020401
-0.027537
-0.042500
-0.061922
-0.119643
-0.182899
-0.188034
-0.180697
-0.168686
-0.136569
-0.106336
-0.083098
-0.075911
0.007911
0.049204
0.100645
0.116423
0.097717
0.095384
0.054382
0.021625
-0.022139
-0.063216
-0.087878
-0.152296
-0.198427
-0.236068
-0.240903
-0.234632
-0.194513
-0.165056
-0.089468
-0.048697
-0.014694
0.042973
0.070930
0.080428
0.093214
0.114237
0.088978
0.045531
0.022093
-0.039788
-0.101533
-0.112861
-0.157928
-0.194660
-0.217540
-0.216996
-0.185706
-0.158442
-0.126301
-0.079101
-0.012943
0.021333
0.028268
0.060542
0.074279
0.049219
0.025811
0.015620
-0.009452
-0.063419
-0.118648
-0.113689
-0.128984
-0.165277
-0.159120
-0.139070
-0.107678
-0.055867
0.003904
0.068991
0.138158
0.208639
0.239055
0.260002
0.282714
0.289036
0.275649
0.276793
0.274981
0.228254
0.188881
0.181623
0.183087
0.202228
0.232580
0.256611
0.311319
0.376582
0.429286
0.543949
0.625625
0.734574
0.784035
0.832637
0.855418
0.864851
0.823211
0.806063
0.769429
0.714975
0.646286
0.563727
0.491378
0.393541
0.320451
0.268720
0.227958
0.233117
0.233614
0.222273
0.206024
0.217269
0.226294
0.221406
0.205657
0.194880
0.165585
0.123985
0.081550
0.038819
-0.035517
-0.079532
-0.104920
-0.111534
-0.110472
-0.092250
-0.105751
-0.075930
0.011344
0.058360
0.100628
0.141322
0.153386
0.184034
0.175400
0.160453
0.120872
0.089706
0.055745
0.005805
-0.051693
-0.106307
-0.129366
-0.168643
-0.189792
-0.192071
-0.144850
-0.113067
-0.076873
-0.030727
0.012577
0.055473
0.093819
0.121850
0.133463
0.123855
0.114826
0.094243
0.032589
-0.021922
-0.068968
-0.123329
-0.152489
-0.149606
-0.135066
-0.115395
-0.108740
-0.100634
-0.054690
-0.015076
0.039691
0.075737
0.116607
0.120431
0.142992
0.144001
0.095172
0.060348
0.027090
-0.031597
-0.081155
-0.124674
-0.153611
-0.150263
-0.168757
-0.184453
-0.139670
-0.078200
-0.043744
-0.003152
0.062909
0.112299
0.163959
0.186123
0.189992
0.173339
0.152312
0.124881
0.085115
0.025911
-0.023324
-0.072402
-0.125801
-0.154278
-0.174679
-0.154848
-0.124928
-0.104929
-0.048828
0.020558
0.048407
0.126867
0.177749
0.197316
0.173072
0.153973
0.156016
0.107467
0.052646
0.012190
0.014829
-0.042221
-0.093544
-0.108091
-0.122649
-0.113662
-0.041716
0.010963
0.042764
0.069783
0.118561
0.165746
0.210294
0.206283
0.211937
0.204532
0.175316
0.131675
0.091741
0.057947
0.009019
-0.007531
-0.051616
-0.079022
-0.055075
-0.040673
-0.038560
-0.000429
0.066917
0.096476
0.129405
0.187213
0.229906
0.262218
0.268858
0.270354
0.248932
0.204370
0.157596
0.115689
0.077529
0.047093
0.004142
-0.030442
-0.050671
-0.033353
-0.016555
0.016474
0.062145
0.112293
0.155076
0.192064
0.208531
0.245131
0.253780
0.237727
0.214489
0.184703
0.132964
0.108166
0.072788
0.014441
-0.007834
-0.015967
-0.028344
-0.023155
-0.008675
0.032833
0.074273
0.129581
0.151404
0.196469
0.220065
0.230384
0.233462
0.248252
0.240650
0.195268
0.133699
0.068439
0.016880
-0.023778
-0.054733
-0.070504
-0.091779
-0.074983
-0.062718
-0.013652
0.033176
0.056681
0.087135
0.151655
0.171110
0.157370
0.266886
0.260007
0.218601
0.175762
0.113765
0.081358
0.039825
-0.018398
-0.071704
-0.090173
-0.102964
-0.101982
-0.091153
-0.075408
-0.026292
0.006250
0.051397
0.099991
0.117177
0.121387
0.135653
0.138220
0.099076
0.059106
0.016448
-0.031423
-0.055642
-0.099485
-0.111572
-0.107617
-0.113927
-0.119024
-0.101689
-0.079767
-0.040259
0.011366
0.046501
0.100946
0.119343
0.135313
0.138190
0.132171
0.114483
0.073201
0.027083
-0.014560
-0.060346
-0.121324
-0.149002
-0.190280
-0.202376
-0.193421
-0.172897
-0.144966
-0.099250
-0.043956
0.041632
0.100751
0.130041
0.143064
0.141123
0.127082
0.097633
0.072838
0.051340
-0.000311
-0.061499
-0.091853
-0.142428
-0.141760
-0.152802
-0.167941
-0.150993
-0.114824
-0.083125
-0.030472
0.044998
0.096053
0.096696
0.102270
0.109763
0.099158
0.072360
0.042928
0.000838
-0.024803
-0.072951
-0.108519
-0.132509
-0.164733
-0.176406
-0.159919
-0.138633
-0.105555
-0.063394
-0.003538
0.044517
0.078979
0.119820
0.156089
0.166547
0.146088
0.123012
0.095460
0.037640
-0.022108
-0.050032
-0.090550
-0.147478
-0.173446
-0.179842
-0.170872
-0.149004
-0.120687
-0.070149
-0.018461
0.003641
0.042274
0.108592
0.118732
0.129819
0.142650
0.142908
0.115397
0.058270
-0.005797
-0.019105
-0.061343
-0.089648
-0.124964
-0.152501
-0.139747
-0.125332
-0.087517
-0.058458
-0.021357
0.022634
0.056029
0.094293
0.111029
0.118647
0.104545
0.086391
0.075277
0.037022
-0.027776
-0.072029
-0.118490
-0.131012
-0.168330
-0.170727
-0.141966
-0.131794
-0.092046
-0.049577
0.002583
0.048965
0.120834
0.140046
0.156610
0.160418
0.143044
0.108262
0.078596
0.045143
-0.007885
-0.071014
-0.125138
-0.168070
-0.184584
-0.203225
-0.198960
-0.184935
-0.140270
-0.080712
-0.031823
0.015858
0.057240
0.093617
0.115271
0.136144
0.132623
0.118609
0.094306
0.033629
-0.013777
-0.058932
-0.115134
-0.140081
-0.153857
-0.156272
-0.183784
-0.133007
-0.102597
-0.045474
-0.013911
0.005631
0.054398
0.079938
0.087718
0.076969
0.082141
0.063352
0.057915
0.035990
-0.015441
-0.088086
-0.133477
-0.149794
-0.182038
-0.181084
-0.170183
-0.152567
-0.107209
-0.052084
-0.019245
0.044000
0.083389
0.123803
0.149247
0.165922
0.111137
0.075377
0.035604
0.015712
-0.038246
-0.102051
-0.149171
-0.166668
-0.213449
-0.189745
-0.147559
-0.165599
-0.166531
-0.107302
-0.055799
0.012095
0.071668
0.100275
0.108255
0.139252
0.162963
0.112682
0.060483
0.012504
-0.016254
-0.061782
-0.095943
-0.133811
-0.167592
-0.183842
-0.182667
-0.163720
-0.134696
-0.088003
-0.044400
-0.001224
0.038358
0.076271
0.094528
0.097337
0.084318
0.052009
0.052742
0.003395
-0.033067
-0.085267
-0.128064
-0.181841
-0.216069
-0.204848
-0.181426
-0.147896
-0.124547
-0.091028
-0.025320
0.036134
0.075942
0.094233
0.129009
0.142498
0.117977
0.087396
0.054900
0.013146
-0.040997
-0.101440
-0.114667
-0.155597
-0.202131
-0.220831
-0.192046
-0.147158
-0.127395
-0.069361
-0.014052
0.042785
0.105360
0.115585
0.134473
0.156759
0.152386
0.111829
0.120377
0.110532
0.019578
-0.051015
-0.082781
-0.103227
-0.115243
-0.155711
-0.154328
-0.091784
-0.066767
-0.055044
-0.008659
0.023867
0.071456
0.108872
0.141226
0.126849
0.113505
0.108098
0.086379
0.029462
-0.022872
-0.067687
-0.099635
-0.131823
-0.147468
-0.115573
-0.110410
-0.092823
-0.070961
-0.032856
0.037695
0.083198
0.121311
0.161446
0.196643
0.192797
0.180464
0.135875
0.096377
0.047116
0.001120
-0.052253
-0.125567
-0.148559
-0.151389
-0.178541
-0.184572
-0.161409
-0.127991
-0.084430
-0.042787
-0.005831
0.058250
0.093040
0.109452
0.112377
0.092444
0.088084
0.072300
0.022965
-0.019172
-0.077614
-0.121838
-0.122682
-0.152313
-0.175662
-0.175764
-0.169358
-0.147481
-0.095666
-0.046777
0.004543
0.033780
0.075167
0.094995
0.091342
0.080361
0.064790
0.032390
-0.040994
-0.078521
-0.111441
-0.162479
-0.199545
-0.197772
-0.203772
-0.191101
-0.167212
-0.133549
-0.091744
-0.055329
-0.005197
0.039140
0.077322
0.104796
0.110771
0.094571
0.070074
0.018991
-0.038672
-0.086137
-0.117808
-0.149875
-0.195494
-0.225718
-0.244579
-0.215309
-0.211336
-0.210942
-0.167538
-0.103379
-0.011747
0.059643
0.084058
0.091740
0.102619
0.072133
0.088810
0.046642
0.000593
-0.051318
-0.093653
-0.153657
-0.178448
-0.216294
-0.224887
-0.212016
-0.195932
-0.177855
-0.102385
-0.073865
-0.038744
-0.011883
0.012674
0.039476
0.066189
0.053614
0.033919
0.032429
0.022638
-0.041611
-0.102476
-0.159998
-0.190380
-0.188008
-0.181206
-0.131591
-0.092336
-0.019147
0.037571
0.096168
0.134134
0.175033
0.213818
0.260259
0.268836
0.300033
0.311978
0.310572
0.285227
0.241107
0.235635
0.218732
0.213434
0.224429
0.265307
0.297117
0.344079
0.418050
0.487500
0.598152
0.692219
0.763763
0.829329
0.869363
0.880699
0.866907
0.864519
0.830998
0.754437
0.701946
0.626268
0.506820
0.433834
0.347006
0.261801
0.202780
0.181045
0.157078
0.144568
0.133082
0.158229
0.174544
0.189685
0.198607
0.200118
0.202034
0.172057
0.138107
0.092331
0.032857
-0.037408
-0.074040
-0.095413
-0.117152
-0.127990
-0.111374
-0.080204
-0.049328
-0.016566
0.024748
0.065248
0.093578
0.121892
0.114503
0.124527
0.154077
0.129841
0.069395
0.015345
-0.025611
-0.093522
-0.143719
-0.178056
-0.185475
-0.194178
-0.193510
-0.162882
-0.130984
-0.091607
-0.018205
0.018314
0.061734
0.063177
0.117308
0.146062
0.136590
0.117322
0.094501
0.043582
-0.014635
-0.063403
-0.103596
-0.148493
-0.187943
-0.187257
-0.172933
-0.129509
-0.094471
-0.064887
-0.038434
-0.017629
0.040443
0.092948
0.111904
0.118730
0.105585
0.095452
0.071978
0.032470
-0.010874
-0.069302
-0.102503
-0.108596
-0.134456
-0.166758
-0.145675
-0.119629
-0.092130
-0.067317
-0.010448
0.051148
0.080612
0.112390
0.131811
0.136386
0.132654
0.104958
0.081812
0.033079
-0.025728
-0.073288
-0.109496
-0.143686
-0.168883
-0.176754
-0.145914
-0.113099
-0.071940
-0.014340
0.023833
0.059033
0.111938
0.151808
0.155505
0.173175
0.169533
0.151066
0.120799
0.076640
0.029651
-0.029410
-0.065048
-0.095622
-0.135490
-0.117784
-0.109511
-0.108050
-0.074143
-0.042282
-0.002290
0.059150
0.118102
0.161935
0.182885
0.207101
0.201552
0.187209
0.157656
0.099258
0.045501
0.033915
0.035107
-0.018447
-0.056610
-0.072813
-0.066242
-0.042787
-0.002353
0.032282
0.086448
0.138553
0.158650
0.182721
0.206140
0.259008
0.245714
0.211895
0.184318
0.144273
0.079342
0.031090
-0.032212
-0.072654
-0.081551
-0.083707
-0.076527
-0.033867
0.010555
0.069264
0.122727
0.173035
0.203600
0.237338
0.263116
0.249129
0.234072
0.233429
0.214065
0.162055
0.105767
0.067130
0.017972
-0.015582
-0.039614
-0.066197
-0.048727
-0.029682
-0.012287
0.026181
0.059644
0.112371
0.137982
0.195049
0.235116
0.230109
0.237360
0.214399
0.154930
0.122514
0.072023
0.020621
-0.043128
-0.069882
-0.063348
-0.077884
-0.064929
-0.051890
-0.026695
0.011572
0.049773
0.090665
0.127108
0.149256
0.170410
0.187207
0.211479
0.172123
0.101572
0.059650
0.005137
-0.045246
-0.085255
-0.108348
-0.128002
-0.147407
-0.145240
-0.124156
-0.100023
-0.053443
0.001261
0.053896
0.106049
0.161536
0.180078
0.179384
0.162294
0.143963
0.099452
0.050906
-0.016012
-0.057352
-0.111225
-0.142802
-0.172691
-0.195817
-0.192897
-0.169757
-0.129059
-0.093128
-0.061735
0.001033
0.032113
0.059010
0.091510
0.098654
0.082643
0.071764
0.066562
0.030889
-0.050009
-0.087686
-0.092679
-0.102276
-0.130916
-0.167394
-0.191292
-0.162270
-0.111277
-0.062066
-0.040209
-0.010038
0.035015
0.084072
0.121724
0.111538
0.097994
0.073992
0.025595
-0.018752
-0.058113
-0.086171
-0.131513
-0.182386
-0.207703
-0.219979
-0.216556
-0.174336
-0.126774
-0.100132
-0.057561
0.001635
0.070769
0.124223
0.127372
0.145186
0.129073
0.097736
0.063789
0.036779
-0.018075
-0.080130
-0.102306
-0.148062
-0.172351
-0.178696
-0.176996
-0.171498
-0.138081
-0.102433
-0.071056
-0.003111
0.047597
0.091730
0.111920
0.119020
0.114334
0.100696
0.082870
0.022826
-0.033526
-0.082454
-0.112151
-0.133175
-0.157984
-0.168521
-0.151156
-0.141142
-0.095302
-0.071711
-0.033835
0.017360
0.066038
0.100717
0.121802
0.095537
0.090105
0.092291
0.066669
-0.004853
-0.051887
-0.063047
-0.119749
-0.171120
-0.199643
-0.213501
-0.196634
-0.153400
-0.116411
-0.081631
-0.030779
0.028307
0.089133
0.108481
0.122455
0.132628
0.116295
0.096207
0.062857
0.046274
-0.009071
-0.071192
-0.125745
-0.172682
-0.166171
-0.201586
-0.202855
-0.180018
-0.143219
-0.086121
-0.046514
-0.030463
0.006166
0.063054
0.109390
0.122298
0.120003
0.086992
0.038104
0.011732
-0.006333
-0.060787
-0.100601
-0.142903
-0.173529
-0.190563
-0.184848
-0.160739
-0.123553
-0.070801
-0.016729
0.017494
0.074904
0.099846
0.092094
0.073024
0.051480
0.044369
0.005940
-0.026654
-0.028952
-0.074382
-0.125983
-0.163236
-0.206929
-0.226439
-0.210031
-0.181418
-0.142853
-0.112701
-0.046809
0.015187
0.054252
0.078607
0.103949
0.108524
0.098350
0.084453
0.047682
0.011788
-0.035015
-0.095191
-0.154465
-0.196723
-0.197389
-0.197630
-0.218285
-0.202825
-0.146402
-0.118712
-0.074112
-0.036880
-0.013756
0.068593
0.108967
0.103736
0.076444
0.032060
0.017845
0.005204
-0.048205
-0.096921
-0.154392
-0.176877
-0.180827
-0.194707
-0.187361
-0.161642
-0.130951
-0.085479
-0.046537
0.005958
0.052911
0.077541
0.085883
0.091982
0.070324
0.083464
0.030610
-0.029494
-0.083606
-0.130883
-0.175238
-0.195896
-0.215938
-0.240733
-0.228388
-0.196253
-0.172586
-0.135114
-0.086393
-0.000745
0.053204
0.073507
0.113750
0.118021
0.094584
0.084558
0.053978
0.001997
-0.072802
-0.126506
-0.173001
-0.189747
-0.194530
-0.217919
-0.218322
-0.190483
-0.173413
-0.126523
-0.099021
-0.054587
0.019118
0.047602
0.063914
0.084181
0.085967
0.049185
0.009873
-0.015758
-0.065442
-0.107763
-0.167938
-0.178061
-0.164731
-0.173375
-0.186772
-0.175020
-0.124881
-0.082698
-0.046385
0.002302
0.036668
0.072413
0.113589
0.104606
0.072525
0.049827
0.012661
-0.030993
-0.051523
-0.090507
-0.138364
-0.171927
-0.193031
-0.206507
-0.192346
-0.162341
-0.107844
-0.093268
-0.051057
0.021719
0.071070
0.108160
0.114608
0.129684
0.155557
0.128764
0.083952
0.037578
-0.030421
-0.071148
-0.120463
-0.102231
-0.155527
-0.202164
-0.197172
-0.170017
-0.142080
-0.093454
-0.030336
0.019486
0.069567
0.094119
0.114836
0.130299
0.160170
0.149513
0.079311
0.023797
-0.024954
-0.053548
-0.091380
-0.131987
-0.165564
-0.166680
-0.136769
-0.114901
-0.077429
-0.052191
-0.016918
0.029746
0.067008
0.096039
0.120713
0.107374
0.093172
0.072090
0.025200
-0.029775
-0.067256
-0.098668
-0.143109
-0.197986
-0.230099
-0.236364
-0.220468
-0.183202
-0.136830
-0.108481
-0.067924
-0.032759
0.029307
0.078831
0.098387
0.082468
0.085732
0.079007
0.015909
-0.015074
-0.056085
-0.090574
-0.141380
-0.186679
-0.215230
-0.219296
-0.235378
-0.212480
-0.179167
-0.130875
-0.098503
-0.067732
-0.005297
0.024565
0.038859
0.059342
0.054945
0.010607
-0.028249
-0.058448
-0.078318
-0.128816
-0.185925
-0.236302
-0.240672
-0.225157
-0.198283
-0.182705
-0.134695
-0.094185
-0.076181
-0.025471
0.012872
0.055412
0.067774
0.065195
0.070833
0.023002
-0.033316
-0.068699
-0.126720
-0.166018
-0.213231
-0.219916
-0.222295
-0.221342
-0.253019
-0.231068
-0.188966
-0.146239
-0.093046
-0.050385
-0.001643
0.040463
0.065291
0.073880
0.067773
0.040579
0.013800
-0.027971
-0.071723
-0.133698
-0.176126
-0.199788
-0.237023
-0.291962
-0.269269
-0.203398
-0.184086
-0.161295
-0.127719
-0.061403
0.036536
0.050970
0.065126
0.084486
0.064834
0.069647
0.059143
0.035701
0.015104
-0.010365
-0.043292
-0.073528
-0.074759
-0.042528
-0.022491
0.030043
0.100012
0.162037
0.234820
0.312113
0.393289
0.456412
0.535485
0.611617
0.637692
0.619078
0.607558
0.596532
0.580632
0.563354
0.557947
0.557203
0.566796
0.556807
0.549829
0.573343
0.604778
0.630187
0.650520
0.680411
0.701749
0.712939
0.653652
0.604627
0.532432
0.459639
0.386695
0.318593
0.212678
0.103046
0.049505
0.002178
-0.035744
-0.058401
-0.066191
-0.054882
-0.058722
-0.037799
0.036610
0.070256
0.085193
0.108938
0.133449
0.120511
0.101040
0.074618
0.067626
0.035620
-0.002504
-0.065842
-0.116285
-0.141419
-0.151228
-0.158662
-0.172277
-0.162246
-0.117797
-0.081711
-0.022487
-0.000009
0.056814
0.085340
0.098010
0.121020
0.093971
0.056116
0.006077
-0.025416
-0.063585
-0.114555
-0.178771
-0.222399
-0.229411
-0.239941
-0.222153
-0.206760
-0.158106
-0.120202
-0.078074
-0.025389
0.028790
0.072105
0.108527
0.120994
0.116129
0.099483
0.053134
-0.010822
-0.055768
-0.094795
-0.151124
-0.202458
-0.224828
-0.225136
-0.205154
-0.179011
-0.147900
-0.124291
-0.087409
-0.016618
0.040429
0.073594
0.090174
0.102805
0.104315
0.048824
0.021498
-0.027362
-0.054820
-0.087086
-0.134463
-0.196812
-0.218889
-0.171066
-0.111813
-0.119892
-0.141594
-0.104565
-0.037326
0.030304
0.067790
0.101116
0.125288
0.180916
0.157842
0.119308
0.079432
0.020221
-0.036502
-0.104426
-0.140059
-0.170882
-0.182247
-0.167893
-0.158459
-0.143670
-0.116902
-0.081491
-0.023566
0.038303
0.084121
0.138024
0.163449
0.175863
0.185937
0.157601
0.104382
0.070820
0.021754
-0.025350
-0.042895
-0.090583
-0.126753
-0.136664
-0.123071
-0.097157
-0.068679
-0.038663
-0.000441
0.042536
0.106894
0.152555
0.171918
0.184148
0.169833
0.155875
0.125278
0.078724
0.039142
-0.006719
-0.049632
-0.072688
-0.089487
-0.083116
-0.065859
-0.041023
-0.011355
0.031757
0.085925
0.132804
0.170528
0.207803
0.248792
0.240188
0.216776
0.155257
0.095219
0.059702
0.027491
0.019276
0.002463
-0.020315
-0.053263
-0.099503
-0.103218
-0.068401
-0.029573
0.017234
0.081447
0.117192
0.147352
0.188403
0.204294
0.217262
0.221607
0.199310
0.161218
0.120424
0.082124
0.033138
-0.023837
-0.059613
-0.091897
-0.098779
-0.080981
-0.047157
-0.039819
-0.020474
0.040562
0.087622
0.112900
0.151273
0.178845
0.175375
0.152175
0.134664
0.110264
0.048921
-0.023251
-0.028273
-0.086764
-0.129114
-0.135121
-0.146802
-0.141553
-0.107685
-0.050978
-0.029181
0.015028
0.062647
0.101781
0.134695
0.150814
0.163277
0.152130
0.125682
0.070562
0.022024
-0.012304
-0.075828
-0.124701
-0.152681
-0.187400
-0.197224
-0.223968
-0.214648
-0.141096
-0.075195
-0.052862
-0.010084
0.048587
0.085550
0.098168
0.092889
0.086685
0.052309
0.024101
-0.012667
-0.047693
-0.089214
-0.134907
-0.177451
-0.180080
-0.202605
-0.208265
-0.182672
-0.119460
-0.066190
-0.044903
-0.007436
0.010766
0.041318
0.070468
0.071184
0.071132
0.053939
-0.000671
-0.033144
-0.077031
-0.140391
-0.179504
-0.219489
-0.230858
-0.233198
-0.216302
-0.193710
-0.158632
-0.107893
-0.058485
-0.006561
0.035310
0.061718
0.088693
0.088213
0.081860
0.057107
0.012080
-0.040718
-0.076802
-0.108508
-0.155037
-0.180397
-0.196719
-0.220997
-0.215205
-0.195035
-0.153225
-0.115131
-0.090891
-0.042932
0.015912
0.044404
0.068228
0.090096
0.065063
0.052838
0.011909
-0.006073
-0.036510
-0.066083
-0.112694
-0.152325
-0.206623
-0.205996
-0.173447
-0.156669
-0.130986
-0.092332
-0.075438
-0.024679
0.040639
0.081956
0.091294
0.084448
0.101723
0.070326
0.009403
-0.052120
-0.098812
-0.137348
-0.165056
-0.171181
-0.169580
-0.195806
-0.192907
-0.184427
-0.143006
-0.087851
-0.049495
0.004819
0.056721
0.111397
0.149499
0.113472
0.089912
0.073021
0.058354
0.021529
-0.048886
-0.116314
-0.153139
-0.187763
-0.200271
-0.231377
-0.253720
-0.219248
-0.187107
-0.121086
-0.073901
-0.019764
0.031205
0.083052
0.065283
0.076399
0.090569
0.058076
0.020765
-0.016393
-0.026711
-0.080110
-0.120207
-0.176152
-0.201950
-0.197442
-0.195815
-0.175655
-0.110240
-0.083292
-0.023699
-0.005797
0.010912
0.053898
0.082318
0.090396
0.063408
0.041111
0.001076
-0.034807
-0.077054
-0.140132
-0.190883
-0.218592
-0.228777
-0.219308
-0.217523
-0.199516
-0.136191
-0.080220
-0.056454
-0.004781
0.053022
0.072863
0.075399
0.055761
0.067777
0.055213
0.056968
0.013972
-0.028846
-0.080482
-0.153488
-0.199630
-0.250139
-0.240421
-0.228439
-0.195720
-0.153636
-0.111122
-0.088275
-0.047005
-0.006565
0.031488
0.056823
0.063453
0.052751
0.050386
0.020930
-0.025548
-0.063745
-0.108658
-0.144514
-0.182613
-0.214472
-0.216473
-0.221494
-0.205421
-0.118967
-0.066437
-0.044458
-0.031803
0.000152
0.033911
0.032335
0.048776
0.071734
0.053046
0.021347
-0.026912
-0.096719
-0.135287
-0.181339
-0.238161
-0.248356
-0.247391
-0.234785
-0.217695
-0.172394
-0.114134
-0.051937
-0.015068
0.012929
0.051399
0.078505
0.087953
0.082678
0.061370
0.031743
-0.015064
-0.074433
-0.133002
-0.174464
-0.212015
-0.231429
-0.246608
-0.250119
-0.220469
-0.170742
-0.136125
-0.105452
-0.043901
-0.006255
0.016586
0.041779
0.053785
0.068374
0.037085
0.016117
-0.030482
-0.049687
-0.082359
-0.136631
-0.209346
-0.230215
-0.212331
-0.206523
-0.171981
-0.135745
-0.113575
-0.062090
-0.005699
0.020630
0.065249
0.064397
0.109546
0.098167
0.053922
0.007378
-0.020906
-0.049975
-0.115027
-0.147426
-0.181912
-0.191516
-0.211290
-0.198516
-0.156325
-0.134640
-0.099890
-0.049823
0.010288
0.050815
0.119859
0.154599
0.138962
0.114125
0.081957
0.075642
0.036615
-0.028266
-0.092193
-0.142659
-0.185274
-0.202387
-0.187038
-0.189802
-0.162132
-0.131285
-0.087127
-0.038033
0.009057
0.056852
0.091519
0.112027
0.131506
0.122833
0.088505
0.057145
0.023856
-0.021491
-0.058155
-0.101932
-0.135452
-0.173414
-0.190788
-0.160007
-0.137084
-0.128740
-0.097660
-0.054576
0.000805
0.028043
0.065376
0.082900
0.078239
0.069340
0.048172
0.014534
-0.021693
-0.045223
-0.103973
-0.168466
-0.214872
-0.228530
-0.230792
-0.200326
-0.194906
-0.149750
-0.111589
-0.072749
-0.048411
0.002080
0.043170
0.047685
0.071200
0.082732
0.037447
0.002835
-0.019566
-0.044068
-0.086752
-0.142370
-0.195644
-0.251474
-0.280701
-0.280354
-0.250414
-0.223715
-0.216672
-0.149428
-0.044058
-0.008068
-0.005247
0.024138
0.050733
0.051449
0.031051
-0.013047
-0.064138
-0.109882
-0.166309
-0.210210
-0.234103
-0.233057
-0.250314
-0.238419
-0.220478
-0.185676
-0.134941
-0.099202
-0.050486
0.005498
0.009249
0.020011
0.026547
0.024303
-0.023592
-0.054841
-0.090085
-0.124234
-0.178291
-0.207642
-0.262750
-0.282951
-0.288752
-0.276680
-0.246228
-0.218120
-0.166362
-0.121310
-0.054013
-0.015652
0.035540
0.079770
0.080035
0.057611
0.025979
-0.010072
-0.060673
-0.109640
-0.128442
-0.165953
-0.208653
-0.258821
-0.277291
-0.284227
-0.256677
-0.226735
-0.191398
-0.155841
-0.101835
-0.027810
0.015618
0.030685
0.046373
0.040025
0.055178
0.058509
0.063342
0.036353
-0.022342
-0.044719
-0.052651
-0.079605
-0.068704
-0.051027
0.031127
0.102850
0.178859
0.254620
0.331416
0.457620
0.502864
0.540378
0.578142
0.589157
0.582110
0.612575
0.606414
0.593739
0.573045
0.551941
0.534099
0.535073
0.529830
0.543478
0.578257
0.615837
0.639023
0.642915
0.672883
0.672773
0.647035
0.613041
0.557448
0.475092
0.409516
0.330634
0.237623
0.147558
0.073813
0.014804
-0.020835
-0.070090
-0.073934
-0.072364
-0.096540
-0.084934
-0.046028
0.002597
0.037366
0.062499
0.104067
0.100956
0.112494
0.098070
0.067796
0.038044
0.001469
-0.051531
-0.119421
-0.150471
-0.168398
-0.182271
-0.194247
-0.218724
-0.170412
-0.120939
-0.071891
-0.052611
0.005575
0.050767
0.069655
0.092223
0.084726
0.068044
0.035457
0.035435
-0.033882
-0.089530
-0.145943
-0.179305
-0.228540
-0.234396
-0.255443
-0.251764
-0.234608
-0.215145
-0.149950
-0.075178
-0.049633
-0.009181
0.081009
0.085181
0.105975
0.098381
0.048541
0.025469
-0.014724
-0.051064
-0.059010
-0.123345
-0.159324
-0.209683
-0.230369
-0.207510
-0.186648
-0.167400
-0.148899
-0.102776
-0.042038
0.004958
0.049199
0.055117
0.074419
0.068101
0.055532
0.025972
-0.013376
-0.046771
-0.088682
-0.154428
-0.196032
-0.211083
-0.198829
-0.182686
-0.169547
-0.146861
-0.098548
-0.045929
0.015750
0.067314
0.109092
0.127171
0.139285
0.113811
0.103725
0.051324
0.005360
-0.054184
-0.104895
-0.147732
-0.167795
-0.195074
-0.208567
-0.195836
-0.154162
-0.116394
-0.079192
-0.044989
0.019936
0.061686
0.116809
0.136115
0.143867
0.154651
0.125811
0.109479
0.056332
0.010152
-0.037521
-0.079658
-0.112143
-0.119874
-0.119955
-0.141010
-0.104811
-0.076277
-0.059346
-0.022418
0.024552
0.107545
0.169179
0.175797
0.179930
0.149635
0.138252
0.118079
0.079406
0.031509
-0.009447
-0.060875
-0.091568
-0.107926
-0.113603
-0.100464
-0.054506
-0.024141
0.003878
0.087426
0.121123
0.150820
0.192825
0.220605
0.235320
0.209926
0.172028
0.140300
0.078503
0.030177
-0.000811
-0.039708
-0.056196
-0.093821
-0.111436
-0.096758
-0.078383
-0.080214
-0.054939
0.006824
0.070804
0.126920
0.173797
0.207592
0.210454
0.217579
0.199763
0.164182
0.108500
0.069398
0.012698
-0.038335
-0.059799
-0.070298
-0.108594
-0.123945
-0.080932
-0.040754
-0.033539
0.029760
0.058769
0.088437
0.147030
0.166491
0.165719
0.151298
0.122912
0.078844
0.028611
-0.009820
-0.059985
-0.091345
-0.129362
-0.136619
-0.160160
-0.143230
-0.092080
-0.066596
-0.049006
-0.018276
0.045577
0.084247
0.125762
0.162845
0.159214
0.126637
0.082643
0.046991
0.002941
-0.059735
-0.088638
-0.143227
-0.173269
-0.196854
-0.217885
-0.215461
-0.183131
-0.161235
-0.119008
-0.063352
-0.019155
0.009971
0.046939
0.078127
0.093220
0.084350
0.057070
0.030806
0.007542
-0.020739
-0.093260
-0.145945
-0.159267
-0.206320
-0.247371
-0.242074
-0.188841
-0.144766
-0.154483
-0.084505
-0.023986
0.020616
0.056766
0.062738
0.042523
0.067463
0.061458
0.034110
-0.018365
-0.092854
-0.140790
-0.179577
-0.203250
-0.214789
-0.250383
-0.236187
-0.177327
-0.141299
-0.113880
-0.046695
0.006389
0.045012
0.052390
0.080191
0.066534
0.052479
0.038155
-0.002055
-0.053671
-0.059859
-0.112766
-0.171530
-0.218487
-0.240259
-0.243111
-0.219195
-0.218137
-0.187571
-0.117353
-0.067159
-0.029810
0.016071
0.055894
0.089910
0.079700
0.073564
0.061061
0.041038
0.002939
-0.034858
-0.090324
-0.127978
-0.173611
-0.204552
-0.207046
-0.211081
-0.183891
-0.148092
-0.107771
-0.065363
-0.016976
0.026308
0.054541
0.086300
0.079081
0.061131
0.026918
-0.020920
-0.064267
-0.129695
-0.178836
-0.192662
-0.207007
-0.220953
-0.197303
-0.201149
-0.176458
-0.155102
-0.095529
-0.059892
0.030196
0.063925
0.095050
0.138487
0.127446
0.096632
0.064325
0.050952
0.007636
-0.041060
-0.103642
-0.169382
-0.191301
-0.199603
-0.228335
-0.234663
-0.206580
-0.160219
-0.124728
-0.098934
-0.047947
0.024797
0.073160
0.077634
0.063235
0.077753
0.064222
0.014831
-0.040715
-0.059153
-0.080429
-0.124627
-0.163454
-0.184590
-0.203006
-0.219560
-0.197628
-0.141937
-0.109106
-0.080605
-0.059536
0.007650
0.069310
0.085048
0.085913
0.069365
0.044109
0.008494
-0.042407
-0.085493
-0.144404
-0.187189
-0.239636
-0.257488
-0.248624
-0.213569
-0.197513
-0.178268
-0.127811
-0.069254
-0.008248
0.036626
0.078997
0.085531
0.090480
0.091147
0.075421
0.041727
-0.027330
-0.092065
-0.147083
-0.204022
-0.224283
-0.222214
-0.210148
-0.221665
-0.215945
-0.171965
-0.141181
-0.098110
-0.070509
-0.027293
-0.016272
0.057469
0.087896
0.062082
0.048966
-0.003665
-0.067360
-0.090016
-0.141475
-0.177781
-0.154143
-0.158478
-0.193266
-0.224146
-0.194081
-0.164670
-0.105081
-0.061625
-0.016851
0.027805
0.057162
0.073708
0.069362
0.038023
0.004009
-0.041767
-0.087468
-0.122803
-0.146298
-0.183213
-0.213995
-0.236778
-0.267564
-0.254485
-0.227603
-0.183311
-0.121773
-0.090685
-0.049585
-0.010103
0.037683
0.071786
0.072377
0.060468
0.080220
0.058982
-0.012892
-0.066535
-0.117158
-0.169403
-0.207214
-0.233067
-0.223922
-0.225326
-0.190642
-0.162577
-0.131746
-0.096386
-0.059131
-0.016633
0.008980
0.036915
0.058456
0.047606
0.030590
-0.013472
-0.054592
-0.086753
-0.119386
-0.164208
-0.186398
-0.222748
-0.226683
-0.211378
-0.177503
-0.143405
-0.103735
-0.042709
-0.007147
0.046759
0.086067
0.107652
0.135612
0.116649
0.116146
0.059819
0.013209
-0.042737
-0.120199
-0.157503
-0.200954
-0.246737
-0.259220
-0.213181
-0.201436
-0.143390
-0.108782
-0.065548
-0.013577
0.017332
0.053835
0.095101
0.110609
0.092437
0.052910
0.055332
0.036503
-0.015280
-0.083236
-0.084503
-0.112105
-0.154932
-0.172252
-0.181768
-0.166964
-0.141196
-0.061103
0.001469
0.044326
0.066707
0.075340
0.082582
0.095741
0.062185
0.024937
0.003831
-0.014984
-0.055502
-0.116670
-0.175568
-0.204108
-0.222601
-0.226948
-0.232281
-0.207184
-0.170522
-0.118149
-0.070197
-0.016160
0.029110
0.063544
0.094502
0.106528
0.089467
0.056112
0.027281
-0.028852
-0.078580
-0.126886
-0.182311
-0.221536
-0.259599
-0.252137
-0.261010
-0.240517
-0.215858
-0.180769
-0.141079
-0.087998
-0.040818
0.004749
0.041619
0.059967
0.034214
0.006947
-0.010317
-0.039486
-0.091442
-0.153828
-0.188924
-0.208548
-0.245632
-0.267390
-0.239577
-0.193736
-0.168459
-0.127784
-0.110037
-0.067024
-0.016478
0.017139
0.021267
0.019140
0.006696
-0.013380
-0.029901
-0.068678
-0.116188
-0.156239
-0.173443
-0.247579
-0.308644
-0.311299
-0.294195
-0.239464
-0.214141
-0.184457
-0.145907
-0.092407
-0.021966
-0.005957
0.045958
0.057067
0.061346
0.056316
-0.005484
0.010950
-0.048670
-0.109850
-0.163141
-0.203266
-0.241360
-0.259293
-0.250990
-0.254466
-0.237440
-0.198427
-0.147242
-0.083501
-0.038177
-0.009574
0.028060
0.039900
0.036643
0.024480
-0.009516
-0.032825
-0.060882
-0.092903
-0.128371
-0.136610
-0.146239
-0.143083
-0.114973
-0.097034
-0.067230
-0.004499
0.081477
0.142227
0.208301
0.261442
0.311677
0.340511
0.353733
0.345243
0.354649
0.328057
0.302547
0.300809
0.299071
0.297194
0.312255
0.345896
0.384811
0.445199
0.502579
0.570661
0.655359
0.753110
0.789571
0.817844
0.814910
0.807705
0.801542
0.733922
0.652657
0.524082
0.412183
0.305114
0.189457
0.112896
0.065904
0.022093
-0.046948
-0.070043
-0.053150
-0.023892
0.013661
0.053473
0.092505
0.130141
0.132271
0.137149
0.103256
0.064496
0.053237
0.047695
-0.017160
-0.077982
-0.120175
-0.178710
-0.180537
-0.128684
-0.163925
-0.140899
-0.121820
-0.084535
-0.021748
0.009971
0.026471
0.067754
0.088991
0.107267
0.125748
0.089213
0.023384
-0.023865
-0.068461
-0.120222
-0.160473
-0.215540
-0.237332
-0.236309
-0.210561
-0.226209
-0.177923
-0.133404
-0.080416
-0.042864
0.007691
0.061162
0.104859
0.086695
0.075362
0.065510
0.049144
-0.007001
-0.049484
-0.105540
-0.151799
-0.181357
-0.204433
-0.198486
-0.198770
-0.202570
-0.152365
-0.115787
-0.084359
-0.015020
0.031258
0.023438
0.020453
0.047093
0.070256
0.052694
0.019446
-0.021423
-0.058713
-0.101896
-0.136654
-0.179662
-0.204547
-0.197438
-0.193910
-0.173866
-0.131448
-0.074763
-0.035388
-0.008331
0.013650
0.071360
0.115559
0.128558
0.119426
0.084448
0.044797
-0.006089
-0.037566
-0.084752
-0.139662
-0.191484
-0.218953
-0.214836
-0.201661
-0.160932
-0.112195
-0.083094
-0.043955
-0.006105
0.025138
0.074454
0.120174
0.136601
0.125613
0.135470
0.104487
0.044702
-0.010355
-0.028971
-0.076636
-0.109856
-0.127565
-0.124325
-0.108909
-0.108352
-0.079615
-0.055136
-0.001784
0.048827
0.088126
0.123627
0.137225
0.148123
0.139988
0.118584
0.086140
0.082516
0.013976
-0.028911
-0.055055
-0.104032
-0.094161
-0.093151
-0.091337
-0.068807
-0.034374
0.029305
0.066607
0.121873
0.165517
0.197313
0.205038
0.229811
0.230713
0.211823
0.174406
0.103988
0.060376
0.003790
-0.053171
-0.071142
-0.095718
-0.109549
-0.110072
-0.074228
-0.052190
-0.003378
0.041113
0.082327
0.149341
0.172319
0.185184
0.207975
0.232173
0.205558
0.168814
0.125351
0.070015
0.038968
-0.002904
-0.049870
-0.068820
-0.057388
-0.066651
-0.050046
-0.015873
-0.005722
0.039296
0.084364
0.123047
0.143148
0.151994
0.144897
0.153930
0.167263
0.156584
0.091109
0.004162
-0.055900
-0.081420
-0.126644
-0.139171
-0.145241
-0.140884
-0.118089
-0.079421
-0.038885
-0.002530
0.052825
0.089617
0.128598
0.181139
0.183298
0.181605
0.120127
0.083995
0.022487
-0.000606
-0.036021
-0.103548
-0.149829
-0.187198
-0.203027
-0.215799
-0.220845
-0.161705
-0.101297
-0.017835
0.021940
0.057192
0.110358
0.102185
0.102461
0.092091
0.075230
0.058020
0.004588
-0.009244
-0.056903
-0.113459
-0.159309
-0.196990
-0.215377
-0.201514
-0.184275
-0.142842
-0.093744
-0.051100
0.001191
0.059538
0.074576
0.078586
0.056789
0.031690
0.021650
-0.013446
-0.054101
-0.083246
-0.128043
-0.161748
-0.193477
-0.227181
-0.233194
-0.228686
-0.211301
-0.161040
-0.110685
-0.075665
-0.025497
0.027110
0.070649
0.113311
0.106968
0.101929
0.066621
0.019621
-0.017531
-0.061939
-0.104582
-0.163745
-0.193232
-0.233078
-0.253192
-0.262942
-0.236445
-0.204928
-0.159581
-0.109349
-0.044509
-0.003343
0.055573
0.111844
0.112114
0.096817
0.074485
0.045152
0.004376
-0.059235
-0.093380
-0.112897
-0.142846
-0.180916
-0.163422
-0.176865
-0.179265
-0.150502
-0.117417
-0.047839
0.016411
0.049681
0.047888
0.057725
0.073333
0.072853
0.053926
0.000167
-0.039774
-0.085610
-0.129707
-0.169890
-0.184175
-0.201877
-0.202171
-0.203633
-0.154072
-0.116105
-0.089744
-0.063935
-0.008518
0.032861
0.074228
0.091513
0.114224
0.104774
0.073236
0.039960
-0.002214
-0.065889
-0.110949
-0.147061
-0.165729
-0.191664
-0.214852
-0.214010
-0.211540
-0.181974
-0.158532
-0.108804
-0.051677
-0.013226
0.038354
0.080553
0.119037
0.102337
0.100511
0.058703
0.001525
-0.036362
-0.073202
-0.113554
-0.152682
-0.194163
-0.194135
-0.191872
-0.165425
-0.113089
-0.095259
-0.054231
-0.023455
0.014538
0.028435
0.049900
0.070343
0.076318
0.044155
-0.005857
-0.005355
-0.079738
-0.135240
-0.165773
-0.191938
-0.226834
-0.242557
-0.217340
-0.214462
-0.182715
-0.112372
-0.065270
-0.001404
0.037756
0.083341
0.096034
0.108066
0.090148
0.048207
0.024615
-0.005091
-0.059317
-0.125570
-0.155933
-0.166386
-0.222136
-0.255477
-0.241625
-0.215969
-0.179702
-0.147877
-0.094016
-0.040527
0.005310
0.052051
0.070634
0.078891
0.067488
0.034879
-0.015420
-0.022219
-0.073036
-0.122321
-0.160576
-0.200136
-0.209198
-0.193729
-0.214547
-0.187333
-0.160578
-0.114769
-0.071318
-0.020053
0.001789
0.020766
0.077485
0.109726
0.112627
0.047571
-0.017379
-0.037975
-0.101698
-0.166105
-0.216256
-0.234036
-0.251921
-0.231616
-0.192277
-0.167435
-0.146329
-0.119924
-0.087122
-0.037886
0.012501
0.040100
0.107455
0.149663
0.115047
0.051929
0.017458
-0.030840
-0.087084
-0.122021
-0.159212
-0.188894
-0.219302
-0.221330
-0.211274
-0.213070
-0.182470
-0.139556
-0.095148
-0.040080
-0.001266
0.029435
0.067094
0.082472
0.104665
0.078199
0.033872
-0.026464
-0.057913
-0.088154
-0.136035
-0.176187
-0.198799
-0.180632
-0.187352
-0.146489
-0.114950
-0.078557
-0.038530
0.013594
0.049741
0.081442
0.114184
0.102550
0.079609
0.064113
0.017351
-0.033657
-0.072152
-0.102620
-0.147114
-0.182731
-0.206709
-0.218519
-0.216781
-0.197603
-0.154124
-0.087552
-0.027536
0.020524
0.051958
0.116447
0.137469
0.168134
0.162617
0.124950
0.093035
0.038350
-0.007592
-0.047211
-0.093072
-0.137662
-0.196244
-0.206370
-0.211372
-0.180752
-0.125953
-0.086285
-0.035113
0.000053
0.054622
0.057164
0.055171
0.080381
0.102301
0.079454
0.010597
-0.023475
-0.092127
-0.102437
-0.161339
-0.188449
-0.216732
-0.226830
-0.212262
-0.149825
-0.093931
-0.118138
-0.069084
-0.015272
0.007427
0.038518
0.072308
0.074995
0.055719
0.026824
0.002356
-0.036900
-0.120386
-0.170499
-0.185202
-0.227292
-0.238210
-0.246858
-0.248155
-0.247343
-0.212168
-0.164873
-0.128543
-0.078267
-0.026744
0.017743
0.032682
0.042506
0.056287
0.003796
-0.017661
-0.051836
-0.071199
-0.113538
-0.183765
-0.208395
-0.219435
-0.207384
-0.231710
-0.242215
-0.209632
-0.159634
-0.106788
-0.056733
-0.009777
0.035650
0.044817
0.017037
0.016382
-0.003325
-0.040058
-0.070062
-0.108909
-0.126384
-0.167084
-0.217115
-0.238120
-0.242015
-0.225730
-0.219135
-0.199301
-0.156810
-0.088962
-0.029286
0.021204
0.046105
0.084242
0.085305
0.042281
0.020131
-0.019883
-0.066027
-0.117029
-0.173634
-0.223354
-0.240919
-0.281546
-0.274166
-0.280646
-0.252293
-0.180785
-0.149989
-0.104543
-0.027815
0.027616
0.065684
0.104745
0.155114
0.153373
0.129707
0.132416
0.099867
0.053083
0.010199
-0.013392
-0.017261
-0.013819
0.023923
0.043727
0.088977
0.146420
0.201723
0.280095
0.345870
0.400687
0.487480
0.527878
0.564450
0.596051
0.620648
0.621485
0.609260
0.589377
0.587651
0.565831
0.534025
0.523137
0.518750
0.509170
0.518882
0.550571
0.572901
0.588559
0.562973
0.538535
0.515115
0.465240
0.411187
0.372310
0.345863
0.250745
0.151041
0.068860
-0.003141
-0.068085
-0.110649
-0.130411
-0.137388
-0.152639
-0.161123
-0.126355
-0.076913
-0.012409
0.015819
0.085125
0.125662
0.102794
0.091557
0.092435
0.078699
0.065721
0.023276
-0.027289
-0.062566
-0.097347
-0.132148
-0.167441
-0.180771
-0.170100
-0.156903
-0.160972
-0.122992
-0.047252
-0.007596
0.027296
0.069705
0.107827
0.105616
0.089381
0.070945
0.045113
-0.010448
-0.079274
-0.137408
-0.178737
-0.195117
-0.218986
-0.233409
-0.208481
-0.191728
-0.164410
-0.111822
-0.036154
0.013336
0.048506
0.091165
0.098570
0.104182
0.090708
0.068940
0.000370
-0.029918
-0.010769
-0.068589
-0.131648
-0.174730
-0.213953
-0.205366
-0.200002
-0.187584
-0.158179
-0.130312
-0.090233
-0.040385
0.026732
0.065116
0.074915
0.108936
0.114779
0.085615
0.043993
0.001034
-0.058789
-0.081068
-0.119123
-0.144216
-0.164869
-0.159651
-0.157512
-0.137805
-0.103313
-0.068128
-0.028808
0.007605
0.057968
0.122294
0.149221
0.123113
0.096773
0.124723
0.100576
0.046247
-0.019375
-0.057985
-0.109927
-0.159562
-0.169331
-0.172677
-0.166111
-0.144196
-0.094947
-0.049810
-0.000410
0.037460
0.072159
0.153330
0.187675
0.181249
0.162108
0.155923
0.126286
0.085499
0.039866
-0.005931
-0.046136
-0.068240
-0.084761
-0.090506
-0.081269
-0.081975
-0.055342
-0.018587
0.027494
0.060890
0.104417
0.146270
0.168374
0.190481
0.178711
0.168150
0.124237
0.078351
0.040834
0.008350
-0.047396
-0.074362
-0.092502
-0.086265
-0.087252
-0.034368
-0.001145
0.036011
0.071312
0.145198
0.211543
0.230888
0.218005
0.260696
0.235311
0.209907
0.161181
0.127504
0.079489
0.006036
-0.053329
-0.084299
-0.111673
-0.084861
-0.053867
-0.029843
-0.005161
0.019472
0.052755
0.104738
0.146536
0.197169
0.218414
0.215589
0.214978
0.200751
0.173142
0.135537
0.070034
0.015170
-0.015313
-0.052461
-0.088666
-0.081237
-0.066568
-0.030206
-0.016392
0.003311
0.068613
0.097042
0.122954
0.163186
0.172276
0.166264
0.158628
0.147301
0.136287
0.062903
0.002563
-0.037231
-0.078878
-0.091330
-0.115613
-0.147603
-0.144778
-0.116136
-0.088327
-0.022180
0.036442
0.068287
0.111714
0.147142
0.159292
0.161396
0.145764
0.132021
0.097207
0.052623
-0.016885
-0.090608
-0.106269
-0.158847
-0.183254
-0.196437
-0.180018
-0.179466
-0.139766
-0.099485
-0.045531
0.000339
0.032219
0.077252
0.118417
0.134592
0.118093
0.101124
0.069273
0.021005
-0.033132
-0.082470
-0.125240
-0.141242
-0.163046
-0.190215
-0.189482
-0.160250
-0.124986
-0.092912
-0.039289
-0.005753
0.041681
0.069126
0.093167
0.101320
0.088479
0.060718
0.021968
-0.015010
-0.069335
-0.103297
-0.142407
-0.212415
-0.226120
-0.184664
-0.196495
-0.180220
-0.134586
-0.096509
-0.048229
-0.005847
0.058012
0.089309
0.098972
0.112205
0.113694
0.079119
0.075022
0.040515
-0.013334
-0.070143
-0.127779
-0.168694
-0.188823
-0.204658
-0.200741
-0.174125
-0.145342
-0.105036
-0.061268
-0.022320
0.028785
0.061799
0.093388
0.100130
0.089891
0.078966
0.045100
-0.009329
-0.027861
-0.083156
-0.123838
-0.149114
-0.155161
-0.178569
-0.188249
-0.145774
-0.101172
-0.041241
-0.016673
0.015731
0.033667
0.084735
0.125912
0.130902
0.104373
0.085828
0.057404
0.006002
-0.053064
-0.112839
-0.156643
-0.186475
-0.209278
-0.202091
-0.204279
-0.180941
-0.148293
-0.092908
-0.063968
-0.012206
0.066235
0.134084
0.152416
0.153391
0.122601
0.096022
0.057270
0.015855
-0.034392
-0.042476
-0.079342
-0.135015
-0.192226
-0.187959
-0.177622
-0.175416
-0.141135
-0.093091
-0.053135
-0.031516
0.026281
0.073860
0.098864
0.119289
0.101853
0.066364
0.030093
-0.016293
-0.049496
-0.077743
-0.130989
-0.165559
-0.194104
-0.182872
-0.170230
-0.148259
-0.108895
-0.066997
-0.030784
0.013188
0.064976
0.094179
0.099870
0.127845
0.141819
0.107118
0.046306
0.001072
-0.060361
-0.112781
-0.170938
-0.196474
-0.213740
-0.215362
-0.204464
-0.187305
-0.148838
-0.114914
-0.091023
-0.043647
0.012185
0.055533
0.080933
0.101485
0.086227
0.085055
0.059040
0.007479
-0.039838
-0.100963
-0.117473
-0.148041
-0.175445
-0.198932
-0.196602
-0.158981
-0.129090
-0.105889
-0.064684
-0.019841
0.029293
0.047271
0.070492
0.077884
0.071650
0.049671
0.024714
-0.027784
-0.082782
-0.134420
-0.162158
-0.180331
-0.178580
-0.185298
-0.219361
-0.198840
-0.153139
-0.115583
-0.093709
-0.004881
0.042057
0.082009
0.097641
0.124892
0.091674
0.093657
0.061767
0.040432
-0.041475
-0.081242
-0.130244
-0.165553
-0.191769
-0.216947
-0.203518
-0.183460
-0.149168
-0.118053
-0.073664
-0.028410
0.020534
0.054069
0.071344
0.105599
0.110185
0.087344
0.054328
0.003958
-0.031047
-0.074500
-0.124997
-0.158663
-0.164349
-0.163284
-0.130724
-0.130488
-0.103065
-0.062785
-0.011246
0.025386
0.073109
0.089917
0.111871
0.129900
0.115360
0.090547
0.051578
0.004901
-0.039488
-0.088932
-0.127404
-0.169761
-0.187292
-0.183881
-0.176905
-0.170012
-0.133462
-0.075006
-0.004911
0.039678
0.071133
0.137126
0.154528
0.161765
0.148422
0.118977
0.082742
0.036563
0.000677
-0.051589
-0.110761
-0.099747
-0.141948
-0.171451
-0.172219
-0.141960
-0.107838
-0.069672
-0.012842
0.017979
0.042492
0.056408
0.078762
0.085206
0.076772
0.040344
0.009758
-0.029346
-0.070613
-0.106382
-0.141175
-0.134928
-0.154695
-0.202699
-0.203212
-0.179938
-0.137380
-0.087045
-0.046074
-0.028047
0.006793
0.061186
0.090281
0.085149
0.071714
0.052038
0.018852
-0.042794
-0.101134
-0.152560
-0.182226
-0.217007
-0.257083
-0.279684
-0.262961
-0.233734
-0.199348
-0.142458
-0.093865
-0.054836
-0.005924
0.028920
0.052845
0.076111
0.055087
0.039525
0.033827
-0.023267
-0.067848
-0.117247
-0.178355
-0.180273
-0.202716
-0.228439
-0.237613
-0.209078
-0.152210
-0.119263
-0.089032
-0.070511
-0.018359
0.015102
0.038731
0.044697
0.029799
0.034603
0.002280
-0.056077
-0.093524
-0.153170
-0.192728
-0.233598
-0.255136
-0.263931
-0.255175
-0.217533
-0.160710
-0.122249
-0.079869
-0.052079
-0.014414
0.029195
0.065144
0.097644
0.073992
0.031786
-0.017195
-0.056331
-0.100192
-0.123847
-0.180431
-0.244922
-0.270069
-0.269395
-0.263941
-0.219611
-0.181179
-0.118548
-0.066706
-0.009119
0.044160
0.094980
0.110887
0.123183
0.140041
0.128201
0.107627
0.092747
0.057264
0.066037
0.025278
-0.003365
0.027650
0.046499
0.034275
0.108833
0.188856
0.262600
0.338266
0.409603
0.498604
0.551679
0.623663
0.677239
0.707143
0.669328
0.687575
0.712155
0.689656
0.650318
0.616771
0.572890
0.538894
0.528074
0.504437
0.503691
0.514690
0.524982
0.531951
0.510608
0.530605
0.521978
0.476737
0.423762
0.365012
0.294751
0.230462
0.179279
0.116811
0.062923
0.011845
-0.051491
-0.090098
-0.121614
-0.133457
-0.140319
-0.077818
-0.038129
0.042982
0.059616
0.069204
0.110723
0.122898
0.130258
0.119429
0.070010
0.023904
0.008223
-0.045731
-0.078697
-0.130249
-0.138397
-0.164938
-0.208886
-0.183422
-0.128145
-0.111389
-0.106679
-0.066879
-0.002498
0.119512
0.127489
0.100966
0.131251
0.140890
0.106997
0.066955
-0.009214
-0.077191
-0.134751
-0.154895
-0.208656
-0.239261
-0.218934
-0.210711
-0.204202
-0.151093
-0.119580
-0.070751
-0.019381
0.009707
0.057565
0.075730
0.101579
0.114577
0.081487
0.038883
0.008968
-0.036156
-0.061083
-0.106291
-0.161485
-0.184082
-0.142630
-0.147054
-0.194374
-0.142449
-0.068090
-0.017197
0.022339
0.063018
0.097263
0.096584
0.098258
0.133275
0.101687
0.055072
0.003515
-0.040569
-0.055627
-0.087944
-0.139521
-0.189855
-0.214403
-0.240246
-0.220888
-0.171675
-0.131945
-0.031915
0.064014
0.157280
0.210420
0.199312
0.170401
0.148992
0.147544
0.110828
0.035642
-0.021607
-0.077012
-0.095706
-0.108033
-0.120050
-0.142473
-0.145242
-0.125810
-0.112248
-0.079186
-0.006181
0.033571
0.069015
0.121396
0.123288
0.131694
0.126122
0.129054
0.120307
0.075571
0.031079
-0.029042
-0.058227
-0.083437
-0.100956
-0.097514
-0.092242
-0.087919
-0.045594
0.004378
0.051953
0.084190
0.131423
0.185396
0.181537
0.200210
0.192614
0.137872
0.141576
0.098950
0.082955
0.070373
-0.024577
-0.102252
-0.111345
-0.109190
-0.094545
-0.044714
-0.010625
0.026178
0.051249
0.105647
0.168532
0.215515
0.217544
0.219736
0.215642
0.203298
0.171027
0.142622
0.086107
0.010414
-0.020967
-0.045919
-0.048961
-0.031458
-0.043885
-0.057585
-0.073789
-0.023579
0.046392
0.102019
0.152324
0.165160
0.179419
0.204212
0.222316
0.206829
0.172206
0.078575
0.028841
0.002588
-0.043493
-0.070074
-0.085887
-0.072868
-0.060630
-0.062340
-0.035032
-0.001259
0.047437
0.090829
0.125947
0.171481
0.206052
0.212051
0.172716
0.130738
0.104963
0.045176
-0.000952
-0.040138
-0.091748
-0.123876
-0.163118
-0.174215
-0.162333
-0.150631
-0.092459
-0.066033
-0.040241
0.013630
0.068559
0.083650
0.113438
0.177661
0.185655
0.123245
0.049197
0.027216
0.008272
-0.043187
-0.108547
-0.138551
-0.180617
-0.174224
-0.177473
-0.136352
-0.113873
-0.088905
-0.043082
-0.004841
0.016129
0.036285
0.066077
0.079726
0.069783
0.079305
0.023031
-0.038811
-0.077820
-0.110888
-0.173532
-0.187540
-0.164903
-0.165294
-0.169934
-0.166159
-0.148342
-0.094022
-0.033659
0.019214
0.074404
0.105308
0.095739
0.082666
0.074653
0.050734
0.016226
-0.013405
-0.049190
-0.124806
-0.143268
-0.198782
-0.229717
-0.249890
-0.260568
-0.216584
-0.161341
-0.131759
-0.092262
-0.050600
-0.005676
0.053981
0.086534
0.090520
0.062964
0.049270
0.084644
0.022250
-0.044405
-0.092778
-0.125745
-0.179810
-0.202304
-0.196800
-0.205339
-0.175517
-0.137939
-0.103162
-0.039918
0.003226
0.036876
0.072994
0.075265
0.077037
0.073277
0.066293
0.018350
-0.053723
-0.057852
-0.106358
-0.166981
-0.189666
-0.179488
-0.201907
-0.230451
-0.214312
-0.156566
-0.110711
-0.050175
0.018642
0.069115
0.124365
0.148109
0.141027
0.107649
0.083230
0.060686
0.019758
-0.039086
-0.107081
-0.158461
-0.190364
-0.214829
-0.253969
-0.255013
-0.192093
-0.149527
-0.137786
-0.106858
-0.046022
0.032305
0.073726
0.088203
0.068097
0.058618
0.049699
0.035131
0.003454
-0.056522
-0.099510
-0.118737
-0.176037
-0.185139
-0.212178
-0.188548
-0.168875
-0.134482
-0.089725
-0.050104
0.023439
0.087017
0.084359
0.096680
0.097632
0.071233
0.017315
-0.006018
-0.016267
-0.077396
-0.130038
-0.179655
-0.225025
-0.241553
-0.248753
-0.242440
-0.215826
-0.161237
-0.111242
-0.038091
-0.012816
0.007287
0.061453
0.108481
0.129022
0.108791
0.072815
0.053400
-0.016446
-0.032384
-0.093364
-0.142609
-0.175316
-0.198992
-0.257858
-0.219261
-0.176411
-0.187164
-0.145118
-0.105461
-0.071588
-0.023815
0.001869
0.047953
0.062242
0.072908
0.033646
0.031143
-0.056117
-0.121182
-0.155369
-0.160196
-0.204221
-0.210121
-0.228802
-0.212880
-0.158049
-0.125304
-0.102299
-0.063191
0.007356
0.071966
0.097017
0.055190
0.076423
0.099765
0.064536
0.036870
-0.025109
-0.090839
-0.142226
-0.181105
-0.217206
-0.238327
-0.247049
-0.254292
-0.243947
-0.182016
-0.128899
-0.090091
-0.028037
-0.018367
0.024017
0.054623
0.063984
0.056291
0.030769
0.017759
-0.024925
-0.089453
-0.093979
-0.131526
-0.173512
-0.215794
-0.234271
-0.213388
-0.166808
-0.155611
-0.127215
-0.106603
-0.059366
0.009411
0.050433
0.059285
0.045750
0.037332
0.010875
-0.018473
-0.044183
-0.108720
-0.132941
-0.166227
-0.221933
-0.234734
-0.245976
-0.239242
-0.219483
-0.141917
-0.091530
-0.059621
0.005873
0.047018
0.071999
0.120147
0.152239
0.137061
0.048225
0.050120
0.011570
-0.052058
-0.103826
-0.119683
-0.145790
-0.186857
-0.201743
-0.224330
-0.201970
-0.164537
-0.117653
-0.053952
0.009722
0.028864
0.041387
0.078265
0.110641
0.092657
0.054710
0.029778
0.020526
-0.026840
-0.088563
-0.144212
-0.157988
-0.158469
-0.154985
-0.158998
-0.145715
-0.101387
-0.064274
-0.053314
0.018891
0.068267
0.082590
0.129963
0.164049
0.126223
0.107086
0.042067
0.010614
-0.060103
-0.091503
-0.143519
-0.195398
-0.201879
-0.194083
-0.184003
-0.163452
-0.143537
-0.113047
-0.053652
-0.006427
0.052881
0.103617
0.098890
0.120350
0.112481
0.063625
0.042587
0.008248
-0.046349
-0.096445
-0.130991
-0.174259
-0.230874
-0.232948
-0.222119
-0.220908
-0.195444
-0.140653
-0.078476
-0.057306
-0.007491
0.025638
0.054277
0.064401
0.039830
0.003980
-0.008967
-0.054747
-0.090418
-0.133618
-0.174364
-0.204698
-0.217306
-0.232814
-0.225844
-0.217416
-0.186252
-0.148802
-0.087666
-0.037164
0.024227
0.048516
0.038528
0.056928
0.059227
0.044116
-0.011911
-0.060933
-0.126391
-0.171084
-0.216047
-0.250920
-0.267077
-0.264286
-0.268336
-0.261825
-0.235888
-0.186115
-0.145930
-0.069754
-0.050845
-0.016055
0.064422
0.060752
0.033052
0.036169
0.005519
-0.030916
-0.087451
-0.135525
-0.154133
-0.160245
-0.206206
-0.221632
-0.239809
-0.243353
-0.176792
-0.116915
-0.077442
-0.032972
-0.011280
0.019949
0.047662
0.038075
0.022972
-0.009402
-0.035643
-0.078466
-0.131589
-0.177706
-0.218927
-0.245597
-0.250846
-0.228123
-0.227005
-0.236049
-0.203969
-0.146163
-0.089543
-0.032136
0.005217
0.039212
0.076030
0.093562
0.109362
0.114033
0.076065
0.046325
0.035912
-0.001399
-0.037934
-0.075273
-0.093818
-0.084319
-0.035776
0.011495
0.060126
0.123701
0.208132
0.300226
0.391618
0.461860
0.517210
0.559761
0.585660
0.601164
0.626511
0.626361
0.632717
0.620932
0.636290
0.594752
0.574640
0.571110
0.552229
0.614477
0.636108
0.654525
0.708542
0.720549
0.712921
0.692934
0.668048
0.617848
0.558075
0.448470
0.338004
0.217288
0.102506
0.037340
-0.002600
-0.026308
-0.060768
-0.070308
-0.064881
-0.073702
-0.025791
0.026787
0.045649
0.076181
0.095176
0.116243
0.153216
0.141683
0.185729
0.156161
0.104905
0.035542
-0.003788
-0.054961
-0.100287
-0.150531
-0.173006
-0.175493
-0.160870
-0.120819
-0.101617
-0.076923
-0.066511
-0.040610
0.000988
0.038609
0.060858
0.055674
0.069207
0.053186
0.025277
-0.027947
-0.079018
-0.131305
-0.153447
-0.190578
-0.221017
-0.230681
-0.220507
-0.182310
-0.135390
-0.086698
-0.031600
0.011606
0.042589
0.076246
0.091041
0.088900
0.088137
0.058413
0.010430
-0.019387
-0.030284
-0.089898
-0.160454
-0.223710
-0.263437
-0.229435
-0.211088
-0.219797
-0.166728
-0.124033
-0.088535
-0.033729
0.003549
0.038408
0.058544
0.092126
0.072060
0.078184
0.061099
-0.001435
-0.048246
-0.081879
-0.120742
-0.148173
-0.178601
-0.180273
-0.173295
-0.164325
-0.145234
-0.094748
-0.047596
-0.008018
0.024381
0.079101
0.092958
0.119406
0.089005
0.049179
0.050042
0.029630
-0.020808
-0.092027
-0.127900
-0.162577
-0.162385
-0.148609
-0.147898
-0.145443
-0.144946
-0.096547
0.016798
0.074060
0.092195
0.139288
0.152303
0.163866
0.165396
0.139128
0.102760
0.065270
0.026277
-0.014746
-0.055273
-0.113205
-0.152176
-0.142958
-0.173982
-0.150344
-0.060437
0.000341
0.024607
0.039209
0.091474
0.144318
0.154154
0.171396
0.166131
0.168855
0.146382
0.101862
0.058805
0.011133
-0.026336
-0.051220
-0.060626
-0.065620
-0.066480
-0.060651
-0.035770
0.019960
0.081546
0.114512
0.182562
0.191310
0.200523
0.187715
0.195510
0.166479
0.125499
0.092232
0.049364
-0.021403
-0.061755
-0.082920
-0.097392
-0.088006
-0.085117
-0.068421
-0.051299
-0.013699
0.020637
0.084191
0.176546
0.197335
0.219577
0.226687
0.245452
0.226677
0.193921
0.147309
0.070835
0.030131
-0.017821
-0.032025
-0.062541
-0.107431
-0.126266
-0.094337
-0.062217
-0.022250
0.014229
0.041397
0.100128
0.131999
0.148126
0.135183
0.123657
0.142559
0.096740
0.053417
0.030217
-0.007149
-0.028317
-0.063350
-0.103957
-0.127389
-0.121724
-0.111605
-0.085843
-0.005569
0.058209
0.069978
0.073827
0.111976
0.144539
0.144411
0.140726
0.136462
0.079390
0.022281
-0.034529
-0.093886
-0.118427
-0.170436
-0.182964
-0.204836
-0.204671
-0.204569
-0.202785
-0.177935
-0.078024
-0.000631
0.084142
0.130622
0.129923
0.129333
0.128955
0.099490
0.054229
-0.014963
-0.031179
-0.079056
-0.114274
-0.171280
-0.181187
-0.199759
-0.186170
-0.171283
-0.151810
-0.101800
-0.087414
-0.025278
0.018235
0.047673
0.099591
0.109817
0.076869
0.041657
-0.003515
-0.011243
-0.058585
-0.102058
-0.140348
-0.171973
-0.207428
-0.224167
-0.176233
-0.161440
-0.132301
-0.119263
-0.075056
-0.005028
0.048063
0.078010
0.115586
0.102767
0.090264
0.056544
0.051152
0.008975
-0.065710
-0.124225
-0.145314
-0.186167
-0.191522
-0.216663
-0.234594
-0.217705
-0.183233
-0.139837
-0.071240
0.008718
0.053514
0.065533
0.074047
0.088398
0.093583
0.086149
0.031276
-0.011866
-0.027143
-0.063061
-0.066398
-0.114129
-0.182081
-0.181319
-0.194323
-0.167461
-0.123116
-0.078065
-0.035356
0.017388
0.059726
0.071862
0.072908
0.077726
0.088842
0.072471
0.050769
-0.019155
-0.070224
-0.134223
-0.138104
-0.160432
-0.201121
-0.200306
-0.201506
-0.177900
-0.144383
-0.107307
-0.046778
0.025776
0.097545
0.115629
0.113800
0.128173
0.129370
0.107839
0.068075
0.019319
-0.054416
-0.089855
-0.101354
-0.152625
-0.189667
-0.204419
-0.202664
-0.180842
-0.145986
-0.113088
-0.034090
0.004211
0.018582
0.056992
0.116216
0.137126
0.078694
0.056479
0.035526
-0.015850
-0.061573
-0.095958
-0.159515
-0.186349
-0.171381
-0.192486
-0.154476
-0.126483
-0.101563
-0.065634
-0.015325
0.001616
0.027601
0.068430
0.088388
0.069337
